-0.2780270467882362
-0.18490819755216645
-1.4360059454438083
-0.2780270467882362
-0.18490819755216645
-1.4360059454438083
-0.2779476757133385
-0.18499988341631496
-1.4360005146330956
-0.2779476757133385
-0.18499988341631496
-1.4360005146330956
-0.2779476757133385
-0.18499988341631496
-1.4360005146330956
-0.2779476757133385
-0.18499988341631496
-1.4360005146330956
-0.278484965300238
-0.1851480702930132
-1.436011398423967
-0.278484965300238
-0.1851480702930132
-1.436011398423967
-0.278484965300238
-0.1851480702930132
-1.436011398423967
-0.278484965300238
-0.1851480702930132
-1.436011398423967
-0.27908722226164684
-0.18522949992528612
-1.4362003121920703
-0.27908722226164684
-0.18522949992528612
-1.4362003121920703
-0.27908722226164684
-0.18522949992528612
-1.4362003121920703
-0.27908722226164684
-0.18522949992528612
-1.4362003121920703
-0.2788153240930425
-0.18534019800454982
-1.4363025418639315
-0.2788153240930425
-0.18534019800454982
-1.4363025418639315
-0.2788153240930425
-0.18534019800454982
-1.4363025418639315
-0.2788153240930425
-0.18534019800454982
-1.4363025418639315
-0.2781048541549922
-0.1854001155105758
-1.4364535377772805
-0.2781048541549922
-0.1854001155105758
-1.4364535377772805
-0.2781048541549922
-0.1854001155105758
-1.4364535377772805
-0.2781048541549922
-0.1854001155105758
-1.4364535377772805
-0.2781048541549922
-0.1854001155105758
-1.4364535377772805
-0.2781048541549922
-0.1854001155105758
-1.4364535377772805
-0.2781048541549922
-0.1854001155105758
-1.4364535377772805
-0.2781048541549922
-0.1854001155105758
-1.4364535377772805
-0.2781187301766594
-0.1855698124349651
-1.4364282700779436
-0.2781187301766594
-0.1855698124349651
-1.4364282700779436
-0.2781187301766594
-0.1855698124349651
-1.4364282700779436
-0.2781187301766594
-0.1855698124349651
-1.4364282700779436
-0.27819812029954344
-0.18547814511455335
-1.4364336817696397
-0.27819812029954344
-0.18547814511455335
-1.4364336817696397
-0.27819812029954344
-0.18547814511455335
-1.4364336817696397
-0.27819812029954344
-0.18547814511455335
-1.4364336817696397
-0.2781187301766594
-0.1855698124349651
-1.4364282700779436
-0.2781187301766594
-0.1855698124349651
-1.4364282700779436
-0.2781187301766594
-0.1855698124349651
-1.4364282700779436
-0.2781187301766594
-0.1855698124349651
-1.4364282700779436
-0.2782119996751556
-0.185647838364632
-1.4364084053926167
-0.2782119996751556
-0.185647838364632
-1.4364084053926167
-0.2782119996751556
-0.185647838364632
-1.4364084053926167
-0.2782119996751556
-0.185647838364632
-1.4364084053926167
-0.2782174085627524
-0.18566736638439424
-1.436487797418064
-0.2782174085627524
-0.18566736638439424
-1.436487797418064
-0.2782174085627524
-0.18566736638439424
-1.436487797418064
-0.2782174085627524
-0.18566736638439424
-1.436487797418064
-0.2782174085627524
-0.18566736638439424
-1.436487797418064
-0.2782174085627524
-0.18566736638439424
-1.436487797418064
-0.2782174085627524
-0.18566736638439424
-1.436487797418064
-0.2782174085627524
-0.18566736638439424
-1.436487797418064
-0.2783106805151727
-0.18574539581300054
-1.4364679231525936
-0.2783106805151727
-0.18574539581300054
-1.4364679231525936
-0.2783106805151727
-0.18574539581300054
-1.4364679231525936
-0.2783106805151727
-0.18574539581300054
-1.4364679231525936
-0.2783106805151727
-0.18574539581300054
-1.4364679231525936
-0.2783106805151727
-0.18574539581300054
-1.4364679231525936
-0.2783106805151727
-0.18574539581300054
-1.4364679231525936
-0.2783106805151727
-0.18574539581300054
-1.4364679231525936
-0.2783106805151727
-0.18574539581300054
-1.4364679231525936
-0.2783106805151727
-0.18574539581300054
-1.4364679231525936
-0.2783106805151727
-0.18574539581300054
-1.4364679231525936
-0.2783106805151727
-0.18574539581300054
-1.4364679231525936
-0.2783106805151727
-0.18574539581300054
-1.4364679231525936
-0.2783106805151727
-0.18574539581300054
-1.4364679231525936
-0.2783106805151727
-0.18574539581300054
-1.4364679231525936
-0.2783106805151727
-0.18574539581300054
-1.4364679231525936
-0.2783106805151727
-0.18574539581300054
-1.4364679231525936
-0.2783106805151727
-0.18574539581300054
-1.4364679231525936
-0.2783106805151727
-0.18574539581300054
-1.4364679231525936
-0.2783106805151727
-0.18574539581300054
-1.4364679231525936
-0.2772349204639428
-0.18583772568453608
-1.4367413267901512
-0.2772349204639428
-0.18583772568453608
-1.4367413267901512
-0.2772349204639428
-0.18583772568453608
-1.4367413267901512
-0.2772349204639428
-0.18583772568453608
-1.4367413267901512
-0.27397409000948575
-0.18544022861687287
-1.4383578417450824
-0.27397409000948575
-0.18544022861687287
-1.4383578417450824
-0.27397409000948575
-0.18544022861687287
-1.4383578417450824
-0.27397409000948575
-0.18544022861687287
-1.4383578417450824
-0.2737292287840491
-0.18341219485416857
-1.4382398791995787
-0.2737292287840491
-0.18341219485416857
-1.4382398791995787
-0.2737292287840491
-0.18341219485416857
-1.4382398791995787
-0.2737292287840491
-0.18341219485416857
-1.4382398791995787
-0.27683995030836905
-0.18039277750977145
-1.437222519130839
-0.27683995030836905
-0.18039277750977145
-1.437222519130839
-0.27683995030836905
-0.18039277750977145
-1.437222519130839
-0.27683995030836905
-0.18039277750977145
-1.437222519130839
-0.2760985192711586
-0.17853817410414313
-1.4361623055259576
-0.2760985192711586
-0.17853817410414313
-1.4361623055259576
-0.2760985192711586
-0.17853817410414313
-1.4361623055259576
-0.2760985192711586
-0.17853817410414313
-1.4361623055259576
-0.2758319985832536
-0.17710603609135336
-1.4358724590686842
-0.2758319985832536
-0.17710603609135336
-1.4358724590686842
-0.2758319985832536
-0.17710603609135336
-1.4358724590686842
-0.2758319985832536
-0.17710603609135336
-1.4358724590686842
-0.27530199267838457
-0.17412230015052538
-1.4362640100624047
-0.27530199267838457
-0.17412230015052538
-1.4362640100624047
-0.27530199267838457
-0.17412230015052538
-1.4362640100624047
-0.27530199267838457
-0.17412230015052538
-1.4362640100624047
-0.2737791818087972
-0.17069519742546937
-1.4355894246462275
-0.2737791818087972
-0.17069519742546937
-1.4355894246462275
-0.2737791818087972
-0.17069519742546937
-1.4355894246462275
-0.2737791818087972
-0.17069519742546937
-1.4355894246462275
-0.27339770823155585
-0.16667755272800694
-1.4342783681485178
-0.27339770823155585
-0.16667755272800694
-1.4342783681485178
-0.27339770823155585
-0.16667755272800694
-1.4342783681485178
-0.27339770823155585
-0.16667755272800694
-1.4342783681485178
-0.2750719821061415
-0.16308773743729243
-1.4349851997465677
-0.2750719821061415
-0.16308773743729243
-1.4349851997465677
-0.2750719821061415
-0.16308773743729243
-1.4349851997465677
-0.2750719821061415
-0.16308773743729243
-1.4349851997465677
-0.2777058100954247
-0.16005572862672268
-1.4351000329797317
-0.2777058100954247
-0.16005572862672268
-1.4351000329797317
-0.2777058100954247
-0.16005572862672268
-1.4351000329797317
-0.2777058100954247
-0.16005572862672268
-1.4351000329797317
-0.28106432010247595
-0.1571123128042742
-1.4341769398126123
-0.28106432010247595
-0.1571123128042742
-1.4341769398126123
-0.28106432010247595
-0.1571123128042742
-1.4341769398126123
-0.28106432010247595
-0.1571123128042742
-1.4341769398126123
-0.28157188389645194
-0.1538720443539576
-1.4344335532884034
-0.28157188389645194
-0.1538720443539576
-1.4344335532884034
-0.28157188389645194
-0.1538720443539576
-1.4344335532884034
-0.28157188389645194
-0.1538720443539576
-1.4344335532884034
-0.2817065168907739
-0.1507738821878286
-1.4361890111783457
-0.2817065168907739
-0.1507738821878286
-1.4361890111783457
-0.2817065168907739
-0.1507738821878286
-1.4361890111783457
-0.2817065168907739
-0.1507738821878286
-1.4361890111783457
-0.28274877381145563
-0.14929251599960167
-1.4379840853949095
-0.28274877381145563
-0.14929251599960167
-1.4379840853949095
-0.28274877381145563
-0.14929251599960167
-1.4379840853949095
-0.28274877381145563
-0.14929251599960167
-1.4379840853949095
-0.28589700307838023
-0.14998833167056733
-1.4398016338969521
-0.28589700307838023
-0.14998833167056733
-1.4398016338969521
-0.28589700307838023
-0.14998833167056733
-1.4398016338969521
-0.28589700307838023
-0.14998833167056733
-1.4398016338969521
-0.28950541808258873
-0.15219287202427628
-1.4413613825796008
-0.28950541808258873
-0.15219287202427628
-1.4413613825796008
-0.28950541808258873
-0.15219287202427628
-1.4413613825796008
-0.28950541808258873
-0.15219287202427628
-1.4413613825796008
-0.2910707495873835
-0.1556151505985154
-1.4425463482101266
-0.2910707495873835
-0.1556151505985154
-1.4425463482101266
-0.2910707495873835
-0.1556151505985154
-1.4425463482101266
-0.2910707495873835
-0.1556151505985154
-1.4425463482101266
-0.2918422767185819
-0.15971200243697686
-1.4432590127415024
-0.2918422767185819
-0.15971200243697686
-1.4432590127415024
-0.2918422767185819
-0.15971200243697686
-1.4432590127415024
-0.2918422767185819
-0.15971200243697686
-1.4432590127415024
-0.29182376175648705
-0.16376313386951852
-1.4439588957941343
-0.29182376175648705
-0.16376313386951852
-1.4439588957941343
-0.29182376175648705
-0.16376313386951852
-1.4439588957941343
-0.29182376175648705
-0.16376313386951852
-1.4439588957941343
-0.29267150067180414
-0.1668554971716619
-1.4449848238140404
-0.29267150067180414
-0.1668554971716619
-1.4449848238140404
-0.29267150067180414
-0.1668554971716619
-1.4449848238140404
-0.29267150067180414
-0.1668554971716619
-1.4449848238140404
-0.2944702016597867
-0.1693762533836012
-1.4454864565065388
-0.2944702016597867
-0.1693762533836012
-1.4454864565065388
-0.2944702016597867
-0.1693762533836012
-1.4454864565065388
-0.2944702016597867
-0.1693762533836012
-1.4454864565065388
-0.2968045833740441
-0.17204771418966186
-1.4452884213252397
-0.2968045833740441
-0.17204771418966186
-1.4452884213252397
-0.2968045833740441
-0.17204771418966186
-1.4452884213252397
-0.2968045833740441
-0.17204771418966186
-1.4452884213252397
-0.2973061627172884
-0.17392726399611153
-1.4451269155456974
-0.2973061627172884
-0.17392726399611153
-1.4451269155456974
-0.2973061627172884
-0.17392726399611153
-1.4451269155456974
-0.2973061627172884
-0.17392726399611153
-1.4451269155456974
-0.29593388018424605
-0.17528928726094856
-1.4449615355447978
-0.29593388018424605
-0.17528928726094856
-1.4449615355447978
-0.29593388018424605
-0.17528928726094856
-1.4449615355447978
-0.29593388018424605
-0.17528928726094856
-1.4449615355447978
-0.2960454981209488
-0.17666595056706352
-1.4448278023785817
-0.2960454981209488
-0.17666595056706352
-1.4448278023785817
-0.2960454981209488
-0.17666595056706352
-1.4448278023785817
-0.2960454981209488
-0.17666595056706352
-1.4448278023785817
-0.29757440431737303
-0.17760098272330227
-1.4451476300948012
-0.29757440431737303
-0.17760098272330227
-1.4451476300948012
-0.29757440431737303
-0.17760098272330227
-1.4451476300948012
-0.29757440431737303
-0.17760098272330227
-1.4451476300948012
-0.29930975465618664
-0.17757806098449447
-1.4455009561587302
-0.29930975465618664
-0.17757806098449447
-1.4455009561587302
-0.29930975465618664
-0.17757806098449447
-1.4455009561587302
-0.29930975465618664
-0.17757806098449447
-1.4455009561587302
-0.3000781250687363
-0.17671888211148928
-1.4459120016132552
-0.3000781250687363
-0.17671888211148928
-1.4459120016132552
-0.3000781250687363
-0.17671888211148928
-1.4459120016132552
-0.3000781250687363
-0.17671888211148928
-1.4459120016132552
-0.30005168823972406
-0.17527292599011612
-1.4468433964760097
-0.30005168823972406
-0.17527292599011612
-1.4468433964760097
-0.30005168823972406
-0.17527292599011612
-1.4468433964760097
-0.30005168823972406
-0.17527292599011612
-1.4468433964760097
-0.30079549113219073
-0.17387908481025988
-1.447164412046701
-0.30079549113219073
-0.17387908481025988
-1.447164412046701
-0.30079549113219073
-0.17387908481025988
-1.447164412046701
-0.30079549113219073
-0.17387908481025988
-1.447164412046701
-0.30215578524239195
-0.17234934951523614
-1.4473610019039223
-0.30215578524239195
-0.17234934951523614
-1.4473610019039223
-0.30215578524239195
-0.17234934951523614
-1.4473610019039223
-0.30215578524239195
-0.17234934951523614
-1.4473610019039223
-0.3016746140770626
-0.17078893532050948
-1.4473926208858676
-0.3016746140770626
-0.17078893532050948
-1.4473926208858676
-0.3016746140770626
-0.17078893532050948
-1.4473926208858676
-0.3016746140770626
-0.17078893532050948
-1.4473926208858676
-0.3004339392645414
-0.16880388614555736
-1.4478208836842574
-0.3004339392645414
-0.16880388614555736
-1.4478208836842574
-0.3004339392645414
-0.16880388614555736
-1.4478208836842574
-0.3004339392645414
-0.16880388614555736
-1.4478208836842574
-0.3002194543039949
-0.16698279807220814
-1.4478585582441885
-0.3002194543039949
-0.16698279807220814
-1.4478585582441885
-0.3002194543039949
-0.16698279807220814
-1.4478585582441885
-0.3002194543039949
-0.16698279807220814
-1.4478585582441885
-0.30104436248532823
-0.16530189988084404
-1.4480446200464208
-0.30104436248532823
-0.16530189988084404
-1.4480446200464208
-0.30104436248532823
-0.16530189988084404
-1.4480446200464208
-0.30104436248532823
-0.16530189988084404
-1.4480446200464208
-0.3010332260629
-0.16415381773892748
-1.4480544186293691
-0.3010332260629
-0.16415381773892748
-1.4480544186293691
-0.3010332260629
-0.16415381773892748
-1.4480544186293691
-0.3010332260629
-0.16415381773892748
-1.4480544186293691
-0.3006185258472009
-0.16331111267959028
-1.4481345773301
-0.3006185258472009
-0.16331111267959028
-1.4481345773301
-0.3006185258472009
-0.16331111267959028
-1.4481345773301
-0.3006185258472009
-0.16331111267959028
-1.4481345773301
-0.30060558580196167
-0.16294519638743918
-1.4480164740484773
-0.30060558580196167
-0.16294519638743918
-1.4480164740484773
-0.30060558580196167
-0.16294519638743918
-1.4480164740484773
-0.30060558580196167
-0.16294519638743918
-1.4480164740484773
-0.30161879057869284
-0.16235376767623946
-1.4479305322479352
-0.30161879057869284
-0.16235376767623946
-1.4479305322479352
-0.30161879057869284
-0.16235376767623946
-1.4479305322479352
-0.30161879057869284
-0.16235376767623946
-1.4479305322479352
-0.3020160476265055
-0.16150557072026195
-1.4476774300512494
-0.3020160476265055
-0.16150557072026195
-1.4476774300512494
-0.3020160476265055
-0.16150557072026195
-1.4476774300512494
-0.3020160476265055
-0.16150557072026195
-1.4476774300512494
-0.30156902413583203
-0.16050052661224773
-1.4478767354211646
-0.30156902413583203
-0.16050052661224773
-1.4478767354211646
-0.30156902413583203
-0.16050052661224773
-1.4478767354211646
-0.30156902413583203
-0.16050052661224773
-1.4478767354211646
-0.3017739671794155
-0.15947589164013784
-1.4475835951793963
-0.3017739671794155
-0.15947589164013784
-1.4475835951793963
-0.3017739671794155
-0.15947589164013784
-1.4475835951793963
-0.3017739671794155
-0.15947589164013784
-1.4475835951793963
-0.3020864399234369
-0.15876474973866367
-1.4475751579810998
-0.3020864399234369
-0.15876474973866367
-1.4475751579810998
-0.3020864399234369
-0.15876474973866367
-1.4475751579810998
-0.3020864399234369
-0.15876474973866367
-1.4475751579810998
-0.3027926767166802
-0.1585107828437875
-1.4472899010832014
-0.3027926767166802
-0.1585107828437875
-1.4472899010832014
-0.3027926767166802
-0.1585107828437875
-1.4472899010832014
-0.3027926767166802
-0.1585107828437875
-1.4472899010832014
-0.3030208730311375
-0.1586069405356327
-1.4468148433760817
-0.3030208730311375
-0.1586069405356327
-1.4468148433760817
-0.3030208730311375
-0.1586069405356327
-1.4468148433760817
-0.3030208730311375
-0.1586069405356327
-1.4468148433760817
-0.3030833214176967
-0.15906239176184367
-1.4463898717931623
-0.3030833214176967
-0.15906239176184367
-1.4463898717931623
-0.3030833214176967
-0.15906239176184367
-1.4463898717931623
-0.3030833214176967
-0.15906239176184367
-1.4463898717931623
-0.30307398002786534
-0.15962831833730937
-1.4460368533190422
-0.30307398002786534
-0.15962831833730937
-1.4460368533190422
-0.30307398002786534
-0.15962831833730937
-1.4460368533190422
-0.30307398002786534
-0.15962831833730937
-1.4460368533190422
-0.30311181372465734
-0.1599408360195253
-1.4458107701283536
-0.30311181372465734
-0.1599408360195253
-1.4458107701283536
-0.30311181372465734
-0.1599408360195253
-1.4458107701283536
-0.30311181372465734
-0.1599408360195253
-1.4458107701283536
-0.30403069365557495
-0.1600514759915693
-1.445617670837871
-0.30403069365557495
-0.1600514759915693
-1.445617670837871
-0.30403069365557495
-0.1600514759915693
-1.445617670837871
-0.30403069365557495
-0.1600514759915693
-1.445617670837871
-0.30501400502055903
-0.16003183924810763
-1.4452731204768847
-0.30501400502055903
-0.16003183924810763
-1.4452731204768847
-0.30501400502055903
-0.16003183924810763
-1.4452731204768847
-0.30501400502055903
-0.16003183924810763
-1.4452731204768847
-0.305242734821614
-0.16012726543550782
-1.4447976845397883
-0.305242734821614
-0.16012726543550782
-1.4447976845397883
-0.305242734821614
-0.16012726543550782
-1.4447976845397883
-0.305242734821614
-0.16012726543550782
-1.4447976845397883
-0.3053248647919272
-0.16037806162331808
-1.4441351954692128
-0.3053248647919272
-0.16037806162331808
-1.4441351954692128
-0.3053248647919272
-0.16037806162331808
-1.4441351954692128
-0.3053248647919272
-0.16037806162331808
-1.4441351954692128
-0.3052818975287892
-0.16038836407337675
-1.4436121688791406
-0.3052818975287892
-0.16038836407337675
-1.4436121688791406
-0.3052818975287892
-0.16038836407337675
-1.4436121688791406
-0.3052818975287892
-0.16038836407337675
-1.4436121688791406
-0.3052268061307871
-0.16042566725365429
-1.4432609573434356
-0.3052268061307871
-0.16042566725365429
-1.4432609573434356
-0.3052268061307871
-0.16042566725365429
-1.4432609573434356
-0.3052268061307871
-0.16042566725365429
-1.4432609573434356
-0.30574120187300224
-0.16019024160931708
-1.4430801528572161
-0.30574120187300224
-0.16019024160931708
-1.4430801528572161
-0.30574120187300224
-0.16019024160931708
-1.4430801528572161
-0.30574120187300224
-0.16019024160931708
-1.4430801528572161
-0.30615759120534786
-0.15972633468553737
-1.443025960773015
-0.30615759120534786
-0.15972633468553737
-1.443025960773015
-0.30615759120534786
-0.15972633468553737
-1.443025960773015
-0.30615759120534786
-0.15972633468553737
-1.443025960773015
-0.30615759120534786
-0.15972633468553737
-1.443025960773015
-0.30615759120534786
-0.15972633468553737
-1.443025960773015
-0.30615759120534786
-0.15972633468553737
-1.443025960773015
-0.30615759120534786
-0.15972633468553737
-1.443025960773015
-0.30615759120534786
-0.15972633468553737
-1.443025960773015
-0.30615759120534786
-0.15972633468553737
-1.443025960773015
-0.30615759120534786
-0.15972633468553737
-1.443025960773015
-0.30615759120534786
-0.15972633468553737
-1.443025960773015
-0.30615759120534786
-0.15972633468553737
-1.443025960773015
-0.30615759120534786
-0.15972633468553737
-1.443025960773015
-0.30615759120534786
-0.15972633468553737
-1.443025960773015
-0.30615759120534786
-0.15972633468553737
-1.443025960773015
-0.3061789479374044
-0.15933052458694624
-1.4433526501093945
-0.3061789479374044
-0.15933052458694624
-1.4433526501093945
-0.3061789479374044
-0.15933052458694624
-1.4433526501093945
-0.3061789479374044
-0.15933052458694624
-1.4433526501093945
-0.3063005361331131
-0.1590325476230999
-1.443738963885389
-0.3063005361331131
-0.1590325476230999
-1.443738963885389
-0.3063005361331131
-0.1590325476230999
-1.443738963885389
-0.3063005361331131
-0.1590325476230999
-1.443738963885389
-0.30610473651787323
-0.15909951844349673
-1.4440945158688105
-0.30610473651787323
-0.15909951844349673
-1.4440945158688105
-0.30610473651787323
-0.15909951844349673
-1.4440945158688105
-0.30610473651787323
-0.15909951844349673
-1.4440945158688105
-0.3061740094293486
-0.1594286360017905
-1.4445627415871753
-0.3061740094293486
-0.1594286360017905
-1.4445627415871753
-0.3061740094293486
-0.1594286360017905
-1.4445627415871753
-0.3061740094293486
-0.1594286360017905
-1.4445627415871753
-0.3061740094293486
-0.1594286360017905
-1.4445627415871753
-0.3061740094293486
-0.1594286360017905
-1.4445627415871753
-0.3061740094293486
-0.1594286360017905
-1.4445627415871753
-0.3061740094293486
-0.1594286360017905
-1.4445627415871753
-0.30584431582935623
-0.15982050844637444
-1.4447039211052521
-0.30584431582935623
-0.15982050844637444
-1.4447039211052521
-0.30584431582935623
-0.15982050844637444
-1.4447039211052521
-0.30584431582935623
-0.15982050844637444
-1.4447039211052521
-0.30576490507237214
-0.15991171792628675
-1.4446962883926593
-0.30576490507237214
-0.15991171792628675
-1.4446962883926593
-0.30576490507237214
-0.15991171792628675
-1.4446962883926593
-0.30576490507237214
-0.15991171792628675
-1.4446962883926593
-0.3061896201669811
-0.16018817363797355
-1.4449685224255182
-0.3061896201669811
-0.16018817363797355
-1.4449685224255182
-0.3061896201669811
-0.16018817363797355
-1.4449685224255182
-0.3061896201669811
-0.16018817363797355
-1.4449685224255182
-0.3062819985743438
-0.16026657271497952
-1.4449487551809808
-0.3062819985743438
-0.16026657271497952
-1.4449487551809808
-0.3062819985743438
-0.16026657271497952
-1.4449487551809808
-0.3062819985743438
-0.16026657271497952
-1.4449487551809808
-0.30620258304015024
-0.16035776822774417
-1.4449411226565319
-0.30620258304015024
-0.16035776822774417
-1.4449411226565319
-0.30620258304015024
-0.16035776822774417
-1.4449411226565319
-0.30620258304015024
-0.16035776822774417
-1.4449411226565319
-0.30657974867868587
-0.16069087635930707
-1.444941386528127
-0.30657974867868587
-0.16069087635930707
-1.444941386528127
-0.30657974867868587
-0.16069087635930707
-1.444941386528127
-0.30657974867868587
-0.16069087635930707
-1.444941386528127
-0.30757157231466403
-0.1608867801790655
-1.444820222830671
-0.30757157231466403
-0.1608867801790655
-1.444820222830671
-0.30757157231466403
-0.1608867801790655
-1.444820222830671
-0.30757157231466403
-0.1608867801790655
-1.444820222830671
-0.30765097065307295
-0.1607955830812781
-1.444827898897228
-0.30765097065307295
-0.1607955830812781
-1.444827898897228
-0.30765097065307295
-0.1607955830812781
-1.444827898897228
-0.30765097065307295
-0.1607955830812781
-1.444827898897228
-0.30765097065307295
-0.1607955830812781
-1.444827898897228
-0.30765097065307295
-0.1607955830812781
-1.444827898897228
-0.30765097065307295
-0.1607955830812781
-1.444827898897228
-0.30765097065307295
-0.1607955830812781
-1.444827898897228
-0.30765097065307295
-0.1607955830812781
-1.444827898897228
-0.30765097065307295
-0.1607955830812781
-1.444827898897228
-0.30765097065307295
-0.1607955830812781
-1.444827898897228
-0.30765097065307295
-0.1607955830812781
-1.444827898897228
-0.30765097065307295
-0.1607955830812781
-1.444827898897228
-0.30765097065307295
-0.1607955830812781
-1.444827898897228
-0.30765097065307295
-0.1607955830812781
-1.444827898897228
-0.30765097065307295
-0.1607955830812781
-1.444827898897228
-0.30765097065307295
-0.1607955830812781
-1.444827898897228
-0.30765097065307295
-0.1607955830812781
-1.444827898897228
-0.30765097065307295
-0.1607955830812781
-1.444827898897228
-0.30765097065307295
-0.1607955830812781
-1.444827898897228
-0.30816102475206675
-0.160607153689892
-1.4448983630754848
-0.30816102475206675
-0.160607153689892
-1.4448983630754848
-0.30816102475206675
-0.160607153689892
-1.4448983630754848
-0.30816102475206675
-0.160607153689892
-1.4448983630754848
-0.30825340677317087
-0.16068552691181034
-1.4448784973281346
-0.30825340677317087
-0.16068552691181034
-1.4448784973281346
-0.30825340677317087
-0.16068552691181034
-1.4448784973281346
-0.30825340677317087
-0.16068552691181034
-1.4448784973281346
-0.30780976473092847
-0.16061319207661792
-1.444843272578927
-0.30780976473092847
-0.16061319207661792
-1.444843272578927
-0.30780976473092847
-0.16061319207661792
-1.444843272578927
-0.30780976473092847
-0.16061319207661792
-1.444843272578927
-0.30780976473092847
-0.16061319207661792
-1.444843272578927
-0.30780976473092847
-0.16061319207661792
-1.444843272578927
-0.30780976473092847
-0.16061319207661792
-1.444843272578927
-0.30780976473092847
-0.16061319207661792
-1.444843272578927
-0.30813506482989583
-0.16026801259288695
-1.4449535024349685
-0.30813506482989583
-0.16026801259288695
-1.4449535024349685
-0.30813506482989583
-0.16026801259288695
-1.4449535024349685
-0.30813506482989583
-0.16026801259288695
-1.4449535024349685
-0.3083602927896187
-0.15982487133115728
-1.445004283942878
-0.3083602927896187
-0.15982487133115728
-1.445004283942878
-0.3083602927896187
-0.15982487133115728
-1.445004283942878
-0.3083602927896187
-0.15982487133115728
-1.445004283942878
-0.3083602927896187
-0.15982487133115728
-1.445004283942878
-0.3083602927896187
-0.15982487133115728
-1.445004283942878
-0.3083602927896187
-0.15982487133115728
-1.445004283942878
-0.3083602927896187
-0.15982487133115728
-1.445004283942878
-0.3083602927896187
-0.15982487133115728
-1.445004283942878
-0.3083602927896187
-0.15982487133115728
-1.445004283942878
-0.3083602927896187
-0.15982487133115728
-1.445004283942878
-0.3083602927896187
-0.15982487133115728
-1.445004283942878
-0.3083602927896187
-0.15982487133115728
-1.445004283942878
-0.3083602927896187
-0.15982487133115728
-1.445004283942878
-0.3083602927896187
-0.15982487133115728
-1.445004283942878
-0.3083602927896187
-0.15982487133115728
-1.445004283942878
-0.3083602927896187
-0.15982487133115728
-1.445004283942878
-0.3083602927896187
-0.15982487133115728
-1.445004283942878
-0.3083602927896187
-0.15982487133115728
-1.445004283942878
-0.3083602927896187
-0.15982487133115728
-1.445004283942878
-0.30822744022934695
-0.1603463932432959
-1.4449336536150508
-0.30822744022934695
-0.1603463932432959
-1.4449336536150508
-0.30822744022934695
-0.1603463932432959
-1.4449336536150508
-0.30822744022934695
-0.1603463932432959
-1.4449336536150508
-0.3078304421608496
-0.16080236078720364
-1.4448951275456032
-0.3078304421608496
-0.16080236078720364
-1.4448951275456032
-0.3078304421608496
-0.16080236078720364
-1.4448951275456032
-0.3078304421608496
-0.16080236078720364
-1.4448951275456032
-0.307399780300453
-0.16089960355280858
-1.4448324034014441
-0.307399780300453
-0.16089960355280858
-1.4448324034014441
-0.307399780300453
-0.16089960355280858
-1.4448324034014441
-0.307399780300453
-0.16089960355280858
-1.4448324034014441
-0.307399780300453
-0.16089960355280858
-1.4448324034014441
-0.307399780300453
-0.16089960355280858
-1.4448324034014441
-0.307399780300453
-0.16089960355280858
-1.4448324034014441
-0.307399780300453
-0.16089960355280858
-1.4448324034014441
-0.307399780300453
-0.16089960355280858
-1.4448324034014441
-0.307399780300453
-0.16089960355280858
-1.4448324034014441
-0.307399780300453
-0.16089960355280858
-1.4448324034014441
-0.307399780300453
-0.16089960355280858
-1.4448324034014441
-0.30741277303506354
-0.16106917755936928
-1.444804892248175
-0.30741277303506354
-0.16106917755936928
-1.444804892248175
-0.30741277303506354
-0.16106917755936928
-1.444804892248175
-0.30741277303506354
-0.16106917755936928
-1.444804892248175
-0.30741277303506354
-0.16106917755936928
-1.444804892248175
-0.30741277303506354
-0.16106917755936928
-1.444804892248175
-0.30741277303506354
-0.16106917755936928
-1.444804892248175
-0.30741277303506354
-0.16106917755936928
-1.444804892248175
-0.307857205911041
-0.16133826343850902
-1.4449842740826333
-0.307857205911041
-0.16133826343850902
-1.4449842740826333
-0.307857205911041
-0.16133826343850902
-1.4449842740826333
-0.307857205911041
-0.16133826343850902
-1.4449842740826333
-0.30823369038140186
-0.16147460154318266
-1.4448398621801957
-0.30823369038140186
-0.16147460154318266
-1.4448398621801957
-0.30823369038140186
-0.16147460154318266
-1.4448398621801957
-0.30823369038140186
-0.16147460154318266
-1.4448398621801957
-0.3087567594297944
-0.1614557575870614
-1.4448825817668494
-0.3087567594297944
-0.1614557575870614
-1.4448825817668494
-0.3087567594297944
-0.1614557575870614
-1.4448825817668494
-0.3087567594297944
-0.1614557575870614
-1.4448825817668494
-0.30920044338794167
-0.16152812716574197
-1.4449175865355695
-0.30920044338794167
-0.16152812716574197
-1.4449175865355695
-0.30920044338794167
-0.16152812716574197
-1.4449175865355695
-0.30920044338794167
-0.16152812716574197
-1.4449175865355695
-0.30985340314090026
-0.16170248503469126
-1.444569050383885
-0.30985340314090026
-0.16170248503469126
-1.444569050383885
-0.30985340314090026
-0.16170248503469126
-1.444569050383885
-0.30985340314090026
-0.16170248503469126
-1.444569050383885
-0.3108334714590418
-0.16064268245003932
-1.4425451642167826
-0.3108334714590418
-0.16064268245003932
-1.4425451642167826
-0.3108334714590418
-0.16064268245003932
-1.4425451642167826
-0.3108334714590418
-0.16064268245003932
-1.4425451642167826
-0.31010206110075156
-0.15898096293264888
-1.4394581680608076
-0.31010206110075156
-0.15898096293264888
-1.4394581680608076
-0.31010206110075156
-0.15898096293264888
-1.4394581680608076
-0.31010206110075156
-0.15898096293264888
-1.4394581680608076
-0.30798352065850587
-0.15867047425114844
-1.438381045943548
-0.30798352065850587
-0.15867047425114844
-1.438381045943548
-0.30798352065850587
-0.15867047425114844
-1.438381045943548
-0.30798352065850587
-0.15867047425114844
-1.438381045943548
-0.3066704635724005
-0.15985404838928544
-1.4393631432391123
-0.3066704635724005
-0.15985404838928544
-1.4393631432391123
-0.3066704635724005
-0.15985404838928544
-1.4393631432391123
-0.3066704635724005
-0.15985404838928544
-1.4393631432391123
-0.30588281382457994
-0.16135808965387993
-1.4397193612686636
-0.30588281382457994
-0.16135808965387993
-1.4397193612686636
-0.30588281382457994
-0.16135808965387993
-1.4397193612686636
-0.30588281382457994
-0.16135808965387993
-1.4397193612686636
-0.3049785181821114
-0.1622015092251506
-1.4397558837838373
-0.3049785181821114
-0.1622015092251506
-1.4397558837838373
-0.3049785181821114
-0.1622015092251506
-1.4397558837838373
-0.3049785181821114
-0.1622015092251506
-1.4397558837838373
-0.30451562480758343
-0.16272303955293765
-1.4395388687155073
-0.30451562480758343
-0.16272303955293765
-1.4395388687155073
-0.30451562480758343
-0.16272303955293765
-1.4395388687155073
-0.30451562480758343
-0.16272303955293765
-1.4395388687155073
-0.3050343978001382
-0.1628287654051526
-1.4386871635052692
-0.3050343978001382
-0.1628287654051526
-1.4386871635052692
-0.3050343978001382
-0.1628287654051526
-1.4386871635052692
-0.3050343978001382
-0.1628287654051526
-1.4386871635052692
-0.3051278212432281
-0.1626592756428631
-1.437563552349926
-0.3051278212432281
-0.1626592756428631
-1.437563552349926
-0.3051278212432281
-0.1626592756428631
-1.437563552349926
-0.3051278212432281
-0.1626592756428631
-1.437563552349926
-0.3036938605662248
-0.16278897069091625
-1.437939821972568
-0.3036938605662248
-0.16278897069091625
-1.437939821972568
-0.3036938605662248
-0.16278897069091625
-1.437939821972568
-0.3036938605662248
-0.16278897069091625
-1.437939821972568
-0.3034640555221856
-0.163526058249146
-1.4392452272857736
-0.3034640555221856
-0.163526058249146
-1.4392452272857736
-0.3034640555221856
-0.163526058249146
-1.4392452272857736
-0.3034640555221856
-0.163526058249146
-1.4392452272857736
-0.30367449886750947
-0.16465725686841076
-1.4398360777469097
-0.30367449886750947
-0.16465725686841076
-1.4398360777469097
-0.30367449886750947
-0.16465725686841076
-1.4398360777469097
-0.30367449886750947
-0.16465725686841076
-1.4398360777469097
-0.30265191419224907
-0.16547601991489513
-1.440238786092075
-0.30265191419224907
-0.16547601991489513
-1.440238786092075
-0.30265191419224907
-0.16547601991489513
-1.440238786092075
-0.30265191419224907
-0.16547601991489513
-1.440238786092075
-0.3006174868733912
-0.16649967958715364
-1.4411484631647593
-0.3006174868733912
-0.16649967958715364
-1.4411484631647593
-0.3006174868733912
-0.16649967958715364
-1.4411484631647593
-0.3006174868733912
-0.16649967958715364
-1.4411484631647593
-0.2984451352471843
-0.16756844706151075
-1.442847668167801
-0.2984451352471843
-0.16756844706151075
-1.442847668167801
-0.2984451352471843
-0.16756844706151075
-1.442847668167801
-0.2984451352471843
-0.16756844706151075
-1.442847668167801
-0.29637100946450246
-0.16912435896205522
-1.4456086755444766
-0.29637100946450246
-0.16912435896205522
-1.4456086755444766
-0.29637100946450246
-0.16912435896205522
-1.4456086755444766
-0.29637100946450246
-0.16912435896205522
-1.4456086755444766
-0.29782591019278665
-0.17134705165584496
-1.4468790720789018
-0.29782591019278665
-0.17134705165584496
-1.4468790720789018
-0.29782591019278665
-0.17134705165584496
-1.4468790720789018
-0.29782591019278665
-0.17134705165584496
-1.4468790720789018
-0.2984044258421393
-0.17443924776355174
-1.4459928254874352
-0.2984044258421393
-0.17443924776355174
-1.4459928254874352
-0.2984044258421393
-0.17443924776355174
-1.4459928254874352
-0.2984044258421393
-0.17443924776355174
-1.4459928254874352
-0.2978190817177862
-0.17754315286997333
-1.4453923074952142
-0.2978190817177862
-0.17754315286997333
-1.4453923074952142
-0.2978190817177862
-0.17754315286997333
-1.4453923074952142
-0.2978190817177862
-0.17754315286997333
-1.4453923074952142
-0.29634909670005993
-0.18000184719587653
-1.4461231142758244
-0.29634909670005993
-0.18000184719587653
-1.4461231142758244
-0.29634909670005993
-0.18000184719587653
-1.4461231142758244
-0.29634909670005993
-0.18000184719587653
-1.4461231142758244
-0.29540974490202637
-0.18278652481235047
-1.4462253871688333
-0.29540974490202637
-0.18278652481235047
-1.4462253871688333
-0.29540974490202637
-0.18278652481235047
-1.4462253871688333
-0.29540974490202637
-0.18278652481235047
-1.4462253871688333
-0.2972215075825341
-0.18565317248285879
-1.4453304418896231
-0.2972215075825341
-0.18565317248285879
-1.4453304418896231
-0.2972215075825341
-0.18565317248285879
-1.4453304418896231
-0.2972215075825341
-0.18565317248285879
-1.4453304418896231
-0.2995412064530382
-0.18833074650138001
-1.4452018942265306
-0.2995412064530382
-0.18833074650138001
-1.4452018942265306
-0.2995412064530382
-0.18833074650138001
-1.4452018942265306
-0.2995412064530382
-0.18833074650138001
-1.4452018942265306
-0.3000927790029714
-0.19197762641576954
-1.4468527103022006
-0.3000927790029714
-0.19197762641576954
-1.4468527103022006
-0.3000927790029714
-0.19197762641576954
-1.4468527103022006
-0.3000927790029714
-0.19197762641576954
-1.4468527103022006
-0.299469097627991
-0.19593886510713932
-1.447971275157955
-0.299469097627991
-0.19593886510713932
-1.447971275157955
-0.299469097627991
-0.19593886510713932
-1.447971275157955
-0.299469097627991
-0.19593886510713932
-1.447971275157955
-0.296318791972309
-0.19861496415975075
-1.4483266624660769
-0.296318791972309
-0.19861496415975075
-1.4483266624660769
-0.296318791972309
-0.19861496415975075
-1.4483266624660769
-0.296318791972309
-0.19861496415975075
-1.4483266624660769
-0.29438659266261236
-0.20041746213837702
-1.447994794237051
-0.29438659266261236
-0.20041746213837702
-1.447994794237051
-0.29438659266261236
-0.20041746213837702
-1.447994794237051
-0.29438659266261236
-0.20041746213837702
-1.447994794237051
-0.2950591532440051
-0.20247965269978946
-1.4479584525128133
-0.2950591532440051
-0.20247965269978946
-1.4479584525128133
-0.2950591532440051
-0.20247965269978946
-1.4479584525128133
-0.2950591532440051
-0.20247965269978946
-1.4479584525128133
-0.2975658773166973
-0.20420883818558838
-1.4479377826212867
-0.2975658773166973
-0.20420883818558838
-1.4479377826212867
-0.2975658773166973
-0.20420883818558838
-1.4479377826212867
-0.2975658773166973
-0.20420883818558838
-1.4479377826212867
-0.2987323143360795
-0.20515704129360676
-1.4475716718220413
-0.2987323143360795
-0.20515704129360676
-1.4475716718220413
-0.2987323143360795
-0.20515704129360676
-1.4475716718220413
-0.2987323143360795
-0.20515704129360676
-1.4475716718220413
-0.29725614219530483
-0.20587798128250814
-1.4471837929252165
-0.29725614219530483
-0.20587798128250814
-1.4471837929252165
-0.29725614219530483
-0.20587798128250814
-1.4471837929252165
-0.29725614219530483
-0.20587798128250814
-1.4471837929252165
-0.29572789514047354
-0.20687422595464353
-1.4474621725151007
-0.29572789514047354
-0.20687422595464353
-1.4474621725151007
-0.29572789514047354
-0.20687422595464353
-1.4474621725151007
-0.29572789514047354
-0.20687422595464353
-1.4474621725151007
-0.29585404537429777
-0.20826439819027437
-1.4480241552094897
-0.29585404537429777
-0.20826439819027437
-1.4480241552094897
-0.29585404537429777
-0.20826439819027437
-1.4480241552094897
-0.29585404537429777
-0.20826439819027437
-1.4480241552094897
-0.2964472612161674
-0.2093101673539502
-1.4481455339071472
-0.2964472612161674
-0.2093101673539502
-1.4481455339071472
-0.2964472612161674
-0.2093101673539502
-1.4481455339071472
-0.2964472612161674
-0.2093101673539502
-1.4481455339071472
-0.2976150985730213
-0.2102586806657186
-1.4477767380624325
-0.2976150985730213
-0.2102586806657186
-1.4477767380624325
-0.2980034766083734
-0.21095756056767828
-1.447887782189695
-0.2980034766083734
-0.21095756056767828
-1.447887782189695
-0.2980034766083734
-0.21095756056767828
-1.447887782189695
-0.2980034766083734
-0.21095756056767828
-1.447887782189695
-0.2974074227608629
-0.21184474922344737
-1.4483439334505983
-0.2974074227608629
-0.21184474922344737
-1.4483439334505983
-0.2974074227608629
-0.21184474922344737
-1.4483439334505983
-0.2974074227608629
-0.21184474922344737
-1.4483439334505983
-0.29675138673243223
-0.21260070145104756
-1.4484763199316788
-0.29675138673243223
-0.21260070145104756
-1.4484763199316788
-0.29675138673243223
-0.21260070145104756
-1.4484763199316788
-0.29675138673243223
-0.21260070145104756
-1.4484763199316788
-0.29667148131735827
-0.2126918871293558
-1.4484712563847917
-0.29667148131735827
-0.2126918871293558
-1.4484712563847917
-0.29667148131735827
-0.2126918871293558
-1.4484712563847917
-0.29667148131735827
-0.2126918871293558
-1.4484712563847917
-0.2970461378086344
-0.2132215375504642
-1.4486093037258014
-0.2970461378086344
-0.2132215375504642
-1.4486093037258014
-0.2970461378086344
-0.2132215375504642
-1.4486093037258014
-0.2970461378086344
-0.2132215375504642
-1.4486093037258014
-0.2970840315300432
-0.21414239993080195
-1.4489002544385365
-0.2970840315300432
-0.21414239993080195
-1.4489002544385365
-0.2970840315300432
-0.21414239993080195
-1.4489002544385365
-0.2970840315300432
-0.21414239993080195
-1.4489002544385365
-0.29738822285182587
-0.21512832637093593
-1.4491519615185258
-0.29738822285182587
-0.21512832637093593
-1.4491519615185258
-0.29738822285182587
-0.21512832637093593
-1.4491519615185258
-0.29738822285182587
-0.21512832637093593
-1.4491519615185258
-0.2982219782781964
-0.2161185158998484
-1.4495116174338631
-0.2982219782781964
-0.2161185158998484
-1.4495116174338631
-0.2982219782781964
-0.2161185158998484
-1.4495116174338631
-0.2982219782781964
-0.2161185158998484
-1.4495116174338631
-0.29894835618117976
-0.21718326949647926
-1.449878903824115
-0.29894835618117976
-0.21718326949647926
-1.449878903824115
-0.29894835618117976
-0.21718326949647926
-1.449878903824115
-0.29894835618117976
-0.21718326949647926
-1.449878903824115
-0.2990976673395485
-0.2185912219270532
-1.4504255226042864
-0.2990976673395485
-0.2185912219270532
-1.4504255226042864
-0.2990976673395485
-0.2185912219270532
-1.4504255226042864
-0.2990976673395485
-0.2185912219270532
-1.4504255226042864
-0.2991832025934777
-0.2198177962987328
-1.4511061047102747
-0.2991832025934777
-0.2198177962987328
-1.4511061047102747
-0.2991832025934777
-0.2198177962987328
-1.4511061047102747
-0.2991832025934777
-0.2198177962987328
-1.4511061047102747
-0.29920632642966327
-0.22078758672404666
-1.451649856615734
-0.29920632642966327
-0.22078758672404666
-1.451649856615734
-0.29920632642966327
-0.22078758672404666
-1.451649856615734
-0.29920632642966327
-0.22078758672404666
-1.451649856615734
-0.2996511120327791
-0.22161862849307046
-1.452082901981621
-0.2996511120327791
-0.22161862849307046
-1.452082901981621
-0.2996511120327791
-0.22161862849307046
-1.452082901981621
-0.2996511120327791
-0.22161862849307046
-1.452082901981621
-0.3005405927156712
-0.22252425720180066
-1.4525374413258663
-0.3005405927156712
-0.22252425720180066
-1.4525374413258663
-0.3005405927156712
-0.22252425720180066
-1.4525374413258663
-0.3005405927156712
-0.22252425720180066
-1.4525374413258663
-0.3010253976523113
-0.2233242441656237
-1.4527028651181801
-0.3010253976523113
-0.2233242441656237
-1.4527028651181801
-0.3010253976523113
-0.2233242441656237
-1.4527028651181801
-0.3010253976523113
-0.2233242441656237
-1.4527028651181801
-0.30087361818508435
-0.22408947678350813
-1.45303797964837
-0.30087361818508435
-0.22408947678350813
-1.45303797964837
-0.30087361818508435
-0.22408947678350813
-1.45303797964837
-0.30087361818508435
-0.22408947678350813
-1.45303797964837
-0.301410712414161
-0.22499924488496045
-1.4534470296479873
-0.301410712414161
-0.22499924488496045
-1.4534470296479873
-0.301410712414161
-0.22499924488496045
-1.4534470296479873
-0.301410712414161
-0.22499924488496045
-1.4534470296479873
-0.3016903206335297
-0.22567013523717228
-1.45383086229397
-0.3016903206335297
-0.22567013523717228
-1.45383086229397
-0.3016903206335297
-0.22567013523717228
-1.45383086229397
-0.3016903206335297
-0.22567013523717228
-1.45383086229397
-0.30196537245980204
-0.22610057298508912
-1.4539082375763688
-0.30196537245980204
-0.22610057298508912
-1.4539082375763688
-0.30196537245980204
-0.22610057298508912
-1.4539082375763688
-0.30196537245980204
-0.22610057298508912
-1.4539082375763688
-0.30221878092287335
-0.22621509376260648
-1.4541208954224936
-0.30221878092287335
-0.22621509376260648
-1.4541208954224936
-0.30221878092287335
-0.22621509376260648
-1.4541208954224936
-0.30221878092287335
-0.22621509376260648
-1.4541208954224936
-0.3029176429156764
-0.22618614775876508
-1.454128349062411
-0.3029176429156764
-0.22618614775876508
-1.454128349062411
-0.3029176429156764
-0.22618614775876508
-1.454128349062411
-0.3029176429156764
-0.22618614775876508
-1.454128349062411
-0.3035363141260471
-0.22624816952227786
-1.4541310515154293
-0.3035363141260471
-0.22624816952227786
-1.4541310515154293
-0.3035363141260471
-0.22624816952227786
-1.4541310515154293
-0.3035363141260471
-0.22624816952227786
-1.4541310515154293
-0.3035363141260471
-0.22624816952227786
-1.4541310515154293
-0.3035363141260471
-0.22624816952227786
-1.4541310515154293
-0.3035363141260471
-0.22624816952227786
-1.4541310515154293
-0.3035363141260471
-0.22624816952227786
-1.4541310515154293
-0.3035363141260471
-0.22624816952227786
-1.4541310515154293
-0.3035363141260471
-0.22624816952227786
-1.4541310515154293
-0.3035363141260471
-0.22624816952227786
-1.4541310515154293
-0.3035363141260471
-0.22624816952227786
-1.4541310515154293
-0.303740524806789
-0.22602934070201663
-1.454492413281673
-0.303740524806789
-0.22602934070201663
-1.454492413281673
-0.303740524806789
-0.22602934070201663
-1.454492413281673
-0.303740524806789
-0.22602934070201663
-1.454492413281673
-0.3041677288881228
-0.2259127988864973
-1.4544608905234164
-0.3041677288881228
-0.2259127988864973
-1.4544608905234164
-0.3041677288881228
-0.2259127988864973
-1.4544608905234164
-0.3041677288881228
-0.2259127988864973
-1.4544608905234164
-0.3041677288881228
-0.2259127988864973
-1.4544608905234164
-0.3041677288881228
-0.2259127988864973
-1.4544608905234164
-0.3041677288881228
-0.2259127988864973
-1.4544608905234164
-0.3041677288881228
-0.2259127988864973
-1.4544608905234164
-0.3045195446346284
-0.2259095825119757
-1.4545047723598519
-0.3045195446346284
-0.2259095825119757
-1.4545047723598519
-0.3045195446346284
-0.2259095825119757
-1.4545047723598519
-0.3045195446346284
-0.2259095825119757
-1.4545047723598519
-0.3045195446346284
-0.2259095825119757
-1.4545047723598519
-0.3045195446346284
-0.2259095825119757
-1.4545047723598519
-0.3045195446346284
-0.2259095825119757
-1.4545047723598519
-0.3045195446346284
-0.2259095825119757
-1.4545047723598519
-0.3045195446346284
-0.2259095825119757
-1.4545047723598519
-0.3045195446346284
-0.2259095825119757
-1.4545047723598519
-0.3045195446346284
-0.2259095825119757
-1.4545047723598519
-0.3045195446346284
-0.2259095825119757
-1.4545047723598519
-0.3045195446346284
-0.2259095825119757
-1.4545047723598519
-0.3045195446346284
-0.2259095825119757
-1.4545047723598519
-0.3045195446346284
-0.2259095825119757
-1.4545047723598519
-0.3045195446346284
-0.2259095825119757
-1.4545047723598519
-0.3046128615893121
-0.22598772642955628
-1.454481795226274
-0.3046128615893121
-0.22598772642955628
-1.454481795226274
-0.3046128615893121
-0.22598772642955628
-1.454481795226274
-0.3046128615893121
-0.22598772642955628
-1.454481795226274
-0.3045195446346284
-0.2259095825119757
-1.4545047723598519
-0.3045195446346284
-0.2259095825119757
-1.4545047723598519
-0.3045195446346284
-0.2259095825119757
-1.4545047723598519
-0.3045195446346284
-0.2259095825119757
-1.4545047723598519
-0.3045195446346284
-0.2259095825119757
-1.4545047723598519
-0.3045195446346284
-0.2259095825119757
-1.4545047723598519
-0.3045195446346284
-0.2259095825119757
-1.4545047723598519
-0.3045195446346284
-0.2259095825119757
-1.4545047723598519
-0.30456863009180596
-0.2254580761589108
-1.454485019225313
-0.30456863009180596
-0.2254580761589108
-1.454485019225313
-0.30456863009180596
-0.2254580761589108
-1.454485019225313
-0.30456863009180596
-0.2254580761589108
-1.454485019225313
-0.3041905123877797
-0.22455665103556358
-1.4548514540691908
-0.3041905123877797
-0.22455665103556358
-1.4548514540691908
-0.3041905123877797
-0.22455665103556358
-1.4548514540691908
-0.3041905123877797
-0.22455665103556358
-1.4548514540691908
-0.3038046946374029
-0.22328983588779422
-1.4550994306976825
-0.3038046946374029
-0.22328983588779422
-1.4550994306976825
-0.3038046946374029
-0.22328983588779422
-1.4550994306976825
-0.3038046946374029
-0.22328983588779422
-1.4550994306976825
-0.30248573395497674
-0.22156133659664126
-1.4555316414650683
-0.30248573395497674
-0.22156133659664126
-1.4555316414650683
-0.30248573395497674
-0.22156133659664126
-1.4555316414650683
-0.30248573395497674
-0.22156133659664126
-1.4555316414650683
-0.3004084777469092
-0.21935760565699947
-1.4561269110112474
-0.3004084777469092
-0.21935760565699947
-1.4561269110112474
-0.3004084777469092
-0.21935760565699947
-1.4561269110112474
-0.3004084777469092
-0.21935760565699947
-1.4561269110112474
-0.2988104056818474
-0.21658568407779594
-1.4566662504597594
-0.2988104056818474
-0.21658568407779594
-1.4566662504597594
-0.2988104056818474
-0.21658568407779594
-1.4566662504597594
-0.2988104056818474
-0.21658568407779594
-1.4566662504597594
-0.2997099753130835
-0.21367438935698094
-1.4562250012739508
-0.2997099753130835
-0.21367438935698094
-1.4562250012739508
-0.2997099753130835
-0.21367438935698094
-1.4562250012739508
-0.2997099753130835
-0.21367438935698094
-1.4562250012739508
-0.2985810021197743
-0.2102158160793239
-1.456278952115651
-0.2985810021197743
-0.2102158160793239
-1.456278952115651
-0.2985810021197743
-0.2102158160793239
-1.456278952115651
-0.2985810021197743
-0.2102158160793239
-1.456278952115651
-0.29745655608779165
-0.20480277090356108
-1.4556711355703702
-0.29745655608779165
-0.20480277090356108
-1.4556711355703702
-0.29745655608779165
-0.20480277090356108
-1.4556711355703702
-0.29745655608779165
-0.20480277090356108
-1.4556711355703702
-0.298756903054243
-0.19946160275969857
-1.4538161125341378
-0.298756903054243
-0.19946160275969857
-1.4538161125341378
-0.298756903054243
-0.19946160275969857
-1.4538161125341378
-0.298756903054243
-0.19946160275969857
-1.4538161125341378
-0.2953883966764654
-0.19661858046230052
-1.4531251351496384
-0.2953883966764654
-0.19661858046230052
-1.4531251351496384
-0.2953883966764654
-0.19661858046230052
-1.4531251351496384
-0.2953883966764654
-0.19661858046230052
-1.4531251351496384
-0.2911689048231652
-0.19505118325314622
-1.4519783259010144
-0.2911689048231652
-0.19505118325314622
-1.4519783259010144
-0.2911689048231652
-0.19505118325314622
-1.4519783259010144
-0.2911689048231652
-0.19505118325314622
-1.4519783259010144
-0.2940018152142718
-0.19304836950572407
-1.452945931892991
-0.2940018152142718
-0.19304836950572407
-1.452945931892991
-0.2940018152142718
-0.19304836950572407
-1.452945931892991
-0.2940018152142718
-0.19304836950572407
-1.452945931892991
-0.30087967572605623
-0.19272044353463394
-1.4540285198763785
-0.30087967572605623
-0.19272044353463394
-1.4540285198763785
-0.30087967572605623
-0.19272044353463394
-1.4540285198763785
-0.30087967572605623
-0.19272044353463394
-1.4540285198763785
-0.3039199301652575
-0.19430668237533852
-1.4561804461564698
-0.3039199301652575
-0.19430668237533852
-1.4561804461564698
-0.3039199301652575
-0.19430668237533852
-1.4561804461564698
-0.3039199301652575
-0.19430668237533852
-1.4561804461564698
-0.3026156437166043
-0.19665829791147224
-1.4585781132764095
-0.3026156437166043
-0.19665829791147224
-1.4585781132764095
-0.3026156437166043
-0.19665829791147224
-1.4585781132764095
-0.3026156437166043
-0.19665829791147224
-1.4585781132764095
-0.3041308380705041
-0.19945335559557378
-1.461836149415625
-0.3041308380705041
-0.19945335559557378
-1.461836149415625
-0.3041308380705041
-0.19945335559557378
-1.461836149415625
-0.3041308380705041
-0.19945335559557378
-1.461836149415625
-0.30635863706309874
-0.2025669167045469
-1.465052358938018
-0.30635863706309874
-0.2025669167045469
-1.465052358938018
-0.30635863706309874
-0.2025669167045469
-1.465052358938018
-0.30635863706309874
-0.2025669167045469
-1.465052358938018
-0.30669347922654666
-0.2049349828234535
-1.4674486025189342
-0.30669347922654666
-0.2049349828234535
-1.4674486025189342
-0.30669347922654666
-0.2049349828234535
-1.4674486025189342
-0.30669347922654666
-0.2049349828234535
-1.4674486025189342
-0.3049832134943143
-0.20653508243591157
-1.4688747213429885
-0.3049832134943143
-0.20653508243591157
-1.4688747213429885
-0.3049832134943143
-0.20653508243591157
-1.4688747213429885
-0.3049832134943143
-0.20653508243591157
-1.4688747213429885
-0.3057055711223824
-0.20741205697273943
-1.4690972033173901
-0.3057055711223824
-0.20741205697273943
-1.4690972033173901
-0.3057055711223824
-0.20741205697273943
-1.4690972033173901
-0.3057055711223824
-0.20741205697273943
-1.4690972033173901
-0.30772842004556383
-0.2072565386229898
-1.4690693507626507
-0.30772842004556383
-0.2072565386229898
-1.4690693507626507
-0.30772842004556383
-0.2072565386229898
-1.4690693507626507
-0.30772842004556383
-0.2072565386229898
-1.4690693507626507
-0.30533858752758664
-0.20672627062224766
-1.469684665751263
-0.30533858752758664
-0.20672627062224766
-1.469684665751263
-0.30533858752758664
-0.20672627062224766
-1.469684665751263
-0.30533858752758664
-0.20672627062224766
-1.469684665751263
-0.3051655393424218
-0.20673755114590986
-1.469701283671807
-0.3051655393424218
-0.20673755114590986
-1.469701283671807
-0.3051655393424218
-0.20673755114590986
-1.469701283671807
-0.3051655393424218
-0.20673755114590986
-1.469701283671807
-0.3066227033213594
-0.20699676202295222
-1.4694092318206278
-0.3066227033213594
-0.20699676202295222
-1.4694092318206278
-0.3066227033213594
-0.20699676202295222
-1.4694092318206278
-0.3066227033213594
-0.20699676202295222
-1.4694092318206278
-0.30730113067212006
-0.20715140949415908
-1.4688710923108697
-0.30730113067212006
-0.20715140949415908
-1.4688710923108697
-0.30730113067212006
-0.20715140949415908
-1.4688710923108697
-0.30730113067212006
-0.20715140949415908
-1.4688710923108697
-0.3063749915565255
-0.20724607859040817
-1.4693119653830589
-0.3063749915565255
-0.20724607859040817
-1.4693119653830589
-0.3063749915565255
-0.20724607859040817
-1.4693119653830589
-0.3063749915565255
-0.20724607859040817
-1.4693119653830589
-0.3062784829669838
-0.20643181274716324
-1.4697155079939517
-0.3062784829669838
-0.20643181274716324
-1.4697155079939517
-0.3062784829669838
-0.20643181274716324
-1.4697155079939517
-0.3062784829669838
-0.20643181274716324
-1.4697155079939517
-0.30809949586684365
-0.205927799462624
-1.4696801424002153
-0.30809949586684365
-0.205927799462624
-1.4696801424002153
-0.30809949586684365
-0.205927799462624
-1.4696801424002153
-0.30809949586684365
-0.205927799462624
-1.4696801424002153
-0.3086817438585719
-0.20548664364586372
-1.469772616412949
-0.3086817438585719
-0.20548664364586372
-1.469772616412949
-0.3086817438585719
-0.20548664364586372
-1.469772616412949
-0.3086817438585719
-0.20548664364586372
-1.469772616412949
-0.3088144416009441
-0.2049456772243504
-1.4697589496746275
-0.3088144416009441
-0.2049456772243504
-1.4697589496746275
-0.3088144416009441
-0.2049456772243504
-1.4697589496746275
-0.3088144416009441
-0.2049456772243504
-1.4697589496746275
-0.30940731782741804
-0.20445557112173626
-1.4695982307299627
-0.30940731782741804
-0.20445557112173626
-1.4695982307299627
-0.30940731782741804
-0.20445557112173626
-1.4695982307299627
-0.30940731782741804
-0.20445557112173626
-1.4695982307299627
-0.3104976615758731
-0.20402966614107554
-1.4698959856168217
-0.3104976615758731
-0.20402966614107554
-1.4698959856168217
-0.3104976615758731
-0.20402966614107554
-1.4698959856168217
-0.3104976615758731
-0.20402966614107554
-1.4698959856168217
-0.31092628692468743
-0.2032041308504971
-1.4703327922505058
-0.31092628692468743
-0.2032041308504971
-1.4703327922505058
-0.31092628692468743
-0.2032041308504971
-1.4703327922505058
-0.31092628692468743
-0.2032041308504971
-1.4703327922505058
-0.3117514591807003
-0.2028368458455077
-1.470480442203596
-0.3117514591807003
-0.2028368458455077
-1.470480442203596
-0.3117514591807003
-0.2028368458455077
-1.470480442203596
-0.3117514591807003
-0.2028368458455077
-1.470480442203596
-0.31246501961731804
-0.2027861331401285
-1.4703233483263012
-0.31246501961731804
-0.2027861331401285
-1.4703233483263012
-0.31246501961731804
-0.2027861331401285
-1.4703233483263012
-0.31246501961731804
-0.2027861331401285
-1.4703233483263012
-0.31360875212515843
-0.20208112380152712
-1.4699595958233909
-0.31360875212515843
-0.20208112380152712
-1.4699595958233909
-0.31360875212515843
-0.20208112380152712
-1.4699595958233909
-0.31360875212515843
-0.20208112380152712
-1.4699595958233909
-0.3140372616862667
-0.20120808950740596
-1.4695280384612572
-0.3140372616862667
-0.20120808950740596
-1.4695280384612572
-0.3140372616862667
-0.20120808950740596
-1.4695280384612572
-0.3140372616862667
-0.20120808950740596
-1.4695280384612572
-0.31465577259581656
-0.20051454542660116
-1.4691332451131567
-0.31465577259581656
-0.20051454542660116
-1.4691332451131567
-0.31465577259581656
-0.20051454542660116
-1.4691332451131567
-0.31465577259581656
-0.20051454542660116
-1.4691332451131567
-0.3152517998843962
-0.19982682610248403
-1.4688310800444855
-0.3152517998843962
-0.19982682610248403
-1.4688310800444855
-0.3152517998843962
-0.19982682610248403
-1.4688310800444855
-0.3152517998843962
-0.19982682610248403
-1.4688310800444855
-0.3158928585938405
-0.19947136627180248
-1.4683804140929904
-0.3158928585938405
-0.19947136627180248
-1.4683804140929904
-0.3158928585938405
-0.19947136627180248
-1.4683804140929904
-0.3158928585938405
-0.19947136627180248
-1.4683804140929904
-0.3165337115702041
-0.19911562128781063
-1.467930010397424
-0.3165337115702041
-0.19911562128781063
-1.467930010397424
-0.3165337115702041
-0.19911562128781063
-1.467930010397424
-0.3165337115702041
-0.19911562128781063
-1.467930010397424
-0.3171901570999444
-0.19873162454231433
-1.4673072094425716
-0.3171901570999444
-0.19873162454231433
-1.4673072094425716
-0.3171901570999444
-0.19873162454231433
-1.4673072094425716
-0.3171901570999444
-0.19873162454231433
-1.4673072094425716
-0.3175552993366508
-0.19848342250785103
-1.4669588934518019
-0.3175552993366508
-0.19848342250785103
-1.4669588934518019
-0.3175552993366508
-0.19848342250785103
-1.4669588934518019
-0.3175552993366508
-0.19848342250785103
-1.4669588934518019
-0.31791499193373224
-0.19808758703260426
-1.4667197302632582
-0.31791499193373224
-0.19808758703260426
-1.4667197302632582
-0.31791499193373224
-0.19808758703260426
-1.4667197302632582
-0.31791499193373224
-0.19808758703260426
-1.4667197302632582
-0.3190754817791121
-0.1979153020961726
-1.4664475351729322
-0.3190754817791121
-0.1979153020961726
-1.4664475351729322
-0.3190754817791121
-0.1979153020961726
-1.4664475351729322
-0.3190754817791121
-0.1979153020961726
-1.4664475351729322
-0.3199920400621539
-0.19779468490284863
-1.465931708487759
-0.3199920400621539
-0.19779468490284863
-1.465931708487759
-0.3199920400621539
-0.19779468490284863
-1.465931708487759
-0.3199920400621539
-0.19779468490284863
-1.465931708487759
-0.3199920400621539
-0.19779468490284863
-1.465931708487759
-0.3199920400621539
-0.19779468490284863
-1.465931708487759
-0.3199920400621539
-0.19779468490284863
-1.465931708487759
-0.3199920400621539
-0.19779468490284863
-1.465931708487759
-0.32006440270697883
-0.19733761939058764
-1.4658232423499993
-0.32006440270697883
-0.19733761939058764
-1.4658232423499993
-0.32006440270697883
-0.19733761939058764
-1.4658232423499993
-0.32006440270697883
-0.19733761939058764
-1.4658232423499993
-0.3207450730763426
-0.19657956680428243
-1.4656113198616938
-0.3207450730763426
-0.19657956680428243
-1.4656113198616938
-0.3207450730763426
-0.19657956680428243
-1.4656113198616938
-0.3207450730763426
-0.19657956680428243
-1.4656113198616938
-0.3214836533347896
-0.19573749467356363
-1.4654988324667082
-0.3214836533347896
-0.19573749467356363
-1.4654988324667082
-0.3214836533347896
-0.19573749467356363
-1.4654988324667082
-0.3214836533347896
-0.19573749467356363
-1.4654988324667082
-0.32159023297624073
-0.19485805644206522
-1.4655475055318574
-0.32159023297624073
-0.19485805644206522
-1.4655475055318574
-0.32159023297624073
-0.19485805644206522
-1.4655475055318574
-0.32159023297624073
-0.19485805644206522
-1.4655475055318574
-0.32173076253938937
-0.19414121396783315
-1.465475232089511
-0.32173076253938937
-0.19414121396783315
-1.465475232089511
-0.32173076253938937
-0.19414121396783315
-1.465475232089511
-0.32173076253938937
-0.19414121396783315
-1.465475232089511
-0.32179434752708547
-0.19331715934333896
-1.465252699242015
-0.32179434752708547
-0.19331715934333896
-1.465252699242015
-0.32179434752708547
-0.19331715934333896
-1.465252699242015
-0.32179434752708547
-0.19331715934333896
-1.465252699242015
-0.3216100088524334
-0.19274271872613344
-1.4649294035154938
-0.3216100088524334
-0.19274271872613344
-1.4649294035154938
-0.3216100088524334
-0.19274271872613344
-1.4649294035154938
-0.3216100088524334
-0.19274271872613344
-1.4649294035154938
-0.32186934624640795
-0.1922454523853347
-1.4646340099311184
-0.32186934624640795
-0.1922454523853347
-1.4646340099311184
-0.32186934624640795
-0.1922454523853347
-1.4646340099311184
-0.32186934624640795
-0.1922454523853347
-1.4646340099311184
-0.3219561075519899
-0.1917597846281481
-1.4643538793732596
-0.3219561075519899
-0.1917597846281481
-1.4643538793732596
-0.3219561075519899
-0.1917597846281481
-1.4643538793732596
-0.3219561075519899
-0.1917597846281481
-1.4643538793732596
-0.3214164243399762
-0.19138480963835616
-1.4641239858370043
-0.3214164243399762
-0.19138480963835616
-1.4641239858370043
-0.3214164243399762
-0.19138480963835616
-1.4641239858370043
-0.3214164243399762
-0.19138480963835616
-1.4641239858370043
-0.32145344933885134
-0.19134970998746523
-1.4638594395276119
-0.32145344933885134
-0.19134970998746523
-1.4638594395276119
-0.32145344933885134
-0.19134970998746523
-1.4638594395276119
-0.32145344933885134
-0.19134970998746523
-1.4638594395276119
-0.3213732097470184
-0.1914401862637452
-1.4638525440863064
-0.3213732097470184
-0.1914401862637452
-1.4638525440863064
-0.3213732097470184
-0.1914401862637452
-1.4638525440863064
-0.3213732097470184
-0.1914401862637452
-1.4638525440863064
-0.3213732097470184
-0.1914401862637452
-1.4638525440863064
-0.3213732097470184
-0.1914401862637452
-1.4638525440863064
-0.3213732097470184
-0.1914401862637452
-1.4638525440863064
-0.3213732097470184
-0.1914401862637452
-1.4638525440863064
-0.3213732097470184
-0.1914401862637452
-1.4638525440863064
-0.3213732097470184
-0.1914401862637452
-1.4638525440863064
-0.3213732097470184
-0.1914401862637452
-1.4638525440863064
-0.3213732097470184
-0.1914401862637452
-1.4638525440863064
-0.3213732097470184
-0.1914401862637452
-1.4638525440863064
-0.3213732097470184
-0.1914401862637452
-1.4638525440863064
-0.3213732097470184
-0.1914401862637452
-1.4638525440863064
-0.3213732097470184
-0.1914401862637452
-1.4638525440863064
-0.3212929690281407
-0.19153066348336512
-1.4638456558886115
-0.3212929690281407
-0.19153066348336512
-1.4638456558886115
-0.3212929690281407
-0.19153066348336512
-1.4638456558886115
-0.3212929690281407
-0.19153066348336512
-1.4638456558886115
-0.3212929690281407
-0.19153066348336512
-1.4638456558886115
-0.3212929690281407
-0.19153066348336512
-1.4638456558886115
-0.3212929690281407
-0.19153066348336512
-1.4638456558886115
-0.3212929690281407
-0.19153066348336512
-1.4638456558886115
-0.3212710068035264
-0.19153742089870118
-1.4639378152493197
-0.3212710068035264
-0.19153742089870118
-1.4639378152493197
-0.3212710068035264
-0.19153742089870118
-1.4639378152493197
-0.3212710068035264
-0.19153742089870118
-1.4639378152493197
-0.3212710068035264
-0.19153742089870118
-1.4639378152493197
-0.3212710068035264
-0.19153742089870118
-1.4639378152493197
-0.3212710068035264
-0.19153742089870118
-1.4639378152493197
-0.3212710068035264
-0.19153742089870118
-1.4639378152493197
-0.32081575292394165
-0.19170783817834958
-1.464305947659851
-0.32081575292394165
-0.19170783817834958
-1.464305947659851
-0.32081575292394165
-0.19170783817834958
-1.464305947659851
-0.32081575292394165
-0.19170783817834958
-1.464305947659851
-0.32081575292394165
-0.19170783817834958
-1.464305947659851
-0.32081575292394165
-0.19170783817834958
-1.464305947659851
-0.32081575292394165
-0.19170783817834958
-1.464305947659851
-0.32081575292394165
-0.19170783817834958
-1.464305947659851
-0.32090790268907565
-0.19178663386428665
-1.464283990246766
-0.32090790268907565
-0.19178663386428665
-1.464283990246766
-0.32090790268907565
-0.19178663386428665
-1.464283990246766
-0.32090790268907565
-0.19178663386428665
-1.464283990246766
-0.31991623088714444
-0.19138454868533533
-1.4642783898509535
-0.31991623088714444
-0.19138454868533533
-1.4642783898509535
-0.31991623088714444
-0.19138454868533533
-1.4642783898509535
-0.31991623088714444
-0.19138454868533533
-1.4642783898509535
-0.3199094081188086
-0.19136304813899194
-1.4641981185514192
-0.3199094081188086
-0.19136304813899194
-1.4641981185514192
-0.3199094081188086
-0.19136304813899194
-1.4641981185514192
-0.3199094081188086
-0.19136304813899194
-1.4641981185514192
-0.32031440429230906
-0.19112973998698285
-1.4644562427890258
-0.32031440429230906
-0.19112973998698285
-1.4644562427890258
-0.32031440429230906
-0.19112973998698285
-1.4644562427890258
-0.32031440429230906
-0.19112973998698285
-1.4644562427890258
-0.3202341274000993
-0.19122019413405703
-1.4644493976774238
-0.3202341274000993
-0.19122019413405703
-1.4644493976774238
-0.3202341274000993
-0.19122019413405703
-1.4644493976774238
-0.3202341274000993
-0.19122019413405703
-1.4644493976774238
-0.3202222734883049
-0.1910509236093857
-1.4644781445397117
-0.3202222734883049
-0.1910509236093857
-1.4644781445397117
-0.3202222734883049
-0.1910509236093857
-1.4644781445397117
-0.3202222734883049
-0.1910509236093857
-1.4644781445397117
-0.3202222734883049
-0.1910509236093857
-1.4644781445397117
-0.3202222734883049
-0.1910509236093857
-1.4644781445397117
-0.3202222734883049
-0.1910509236093857
-1.4644781445397117
-0.3202222734883049
-0.1910509236093857
-1.4644781445397117
-0.32031440429230906
-0.19112973998698285
-1.4644562427890258
-0.32031440429230906
-0.19112973998698285
-1.4644562427890258
-0.32031440429230906
-0.19112973998698285
-1.4644562427890258
-0.32031440429230906
-0.19112973998698285
-1.4644562427890258
-0.32054019444891446
-0.1908866316757432
-1.4646492194463077
-0.32054019444891446
-0.1908866316757432
-1.4646492194463077
-0.32054019444891446
-0.1908866316757432
-1.4646492194463077
-0.32054019444891446
-0.1908866316757432
-1.4646492194463077
-0.32101869040699166
-0.19054152986276168
-1.4648341237360247
-0.32101869040699166
-0.19054152986276168
-1.4648341237360247
-0.32101869040699166
-0.19054152986276168
-1.4648341237360247
-0.32101869040699166
-0.19054152986276168
-1.4648341237360247
-0.32111079088819267
-0.19062035676587372
-1.464812214500383
-0.32111079088819267
-0.19062035676587372
-1.464812214500383
-0.32111079088819267
-0.19062035676587372
-1.464812214500383
-0.32111079088819267
-0.19062035676587372
-1.464812214500383
-0.32101869040699166
-0.19054152986276168
-1.4648341237360247
-0.32101869040699166
-0.19054152986276168
-1.4648341237360247
-0.32101869040699166
-0.19054152986276168
-1.4648341237360247
-0.32101869040699166
-0.19054152986276168
-1.4648341237360247
-0.32113270430685464
-0.19061357874003426
-1.4647201098361617
-0.32113270430685464
-0.19061357874003426
-1.4647201098361617
-0.32113270430685464
-0.19061357874003426
-1.4647201098361617
-0.32113270430685464
-0.19061357874003426
-1.4647201098361617
-0.32111079088819267
-0.19062035676587372
-1.464812214500383
-0.32111079088819267
-0.19062035676587372
-1.464812214500383
-0.32111079088819267
-0.19062035676587372
-1.464812214500383
-0.32111079088819267
-0.19062035676587372
-1.464812214500383
-0.3212311183593664
-0.19029726699466368
-1.4644110853262753
-0.3212311183593664
-0.19029726699466368
-1.4644110853262753
-0.3212311183593664
-0.19029726699466368
-1.4644110853262753
-0.3212311183593664
-0.19029726699466368
-1.4644110853262753
-0.3213324804507271
-0.1897833452031485
-1.4639585833659874
-0.3213324804507271
-0.1897833452031485
-1.4639585833659874
-0.3213324804507271
-0.1897833452031485
-1.4639585833659874
-0.3213324804507271
-0.1897833452031485
-1.4639585833659874
-0.3208917106152325
-0.18950886042292636
-1.4637864889718886
-0.3208917106152325
-0.18950886042292636
-1.4637864889718886
-0.3208917106152325
-0.18950886042292636
-1.4637864889718886
-0.3208917106152325
-0.18950886042292636
-1.4637864889718886
-0.32079562003185486
-0.18921107334876716
-1.463584536102521
-0.32079562003185486
-0.18921107334876716
-1.463584536102521
-0.32079562003185486
-0.18921107334876716
-1.463584536102521
-0.32079562003185486
-0.18921107334876716
-1.463584536102521
-0.32079562003185486
-0.18921107334876716
-1.463584536102521
-0.32079562003185486
-0.18921107334876716
-1.463584536102521
-0.32079562003185486
-0.18921107334876716
-1.463584536102521
-0.32079562003185486
-0.18921107334876716
-1.463584536102521
-0.3210967984729072
-0.1892430239711884
-1.463283357661469
-0.3210967984729072
-0.1892430239711884
-1.463283357661469
-0.3210967984729072
-0.1892430239711884
-1.463283357661469
-0.3210967984729072
-0.1892430239711884
-1.463283357661469
-0.3210967984729072
-0.1892430239711884
-1.463283357661469
-0.3210967984729072
-0.1892430239711884
-1.463283357661469
-0.3210967984729072
-0.1892430239711884
-1.463283357661469
-0.3210967984729072
-0.1892430239711884
-1.463283357661469
-0.32100466121743954
-0.1891642483699811
-1.4633051942298894
-0.32100466121743954
-0.1891642483699811
-1.4633051942298894
-0.32100466121743954
-0.1891642483699811
-1.4633051942298894
-0.32100466121743954
-0.1891642483699811
-1.4633051942298894
-0.321174061505977
-0.18935010179143474
-1.463433857107981
-0.321174061505977
-0.18935010179143474
-1.463433857107981
-0.321174061505977
-0.18935010179143474
-1.463433857107981
-0.321174061505977
-0.18935010179143474
-1.463433857107981
-0.321174061505977
-0.18935010179143474
-1.463433857107981
-0.321174061505977
-0.18935010179143474
-1.463433857107981
-0.321174061505977
-0.18935010179143474
-1.463433857107981
-0.321174061505977
-0.18935010179143474
-1.463433857107981
-0.3210938493800546
-0.18944058848052803
-1.4634268897435958
-0.3210938493800546
-0.18944058848052803
-1.4634268897435958
-0.3210938493800546
-0.18944058848052803
-1.4634268897435958
-0.3210938493800546
-0.18944058848052803
-1.4634268897435958
-0.32134044183445026
-0.1897335442179647
-1.463705999342428
-0.32134044183445026
-0.1897335442179647
-1.463705999342428
-0.32134044183445026
-0.1897335442179647
-1.463705999342428
-0.32134044183445026
-0.1897335442179647
-1.463705999342428
-0.32254679044100376
-0.19013998118087327
-1.4643014310749654
-0.32254679044100376
-0.19013998118087327
-1.4643014310749654
-0.32254679044100376
-0.19013998118087327
-1.4643014310749654
-0.32254679044100376
-0.19013998118087327
-1.4643014310749654
-0.32344841502486205
-0.1907130570227472
-1.4653412304345133
-0.32344841502486205
-0.1907130570227472
-1.4653412304345133
-0.32344841502486205
-0.1907130570227472
-1.4653412304345133
-0.32344841502486205
-0.1907130570227472
-1.4653412304345133
-0.3233043030872461
-0.19069804834421922
-1.4658000271946445
-0.3233043030872461
-0.19069804834421922
-1.4658000271946445
-0.3233043030872461
-0.19069804834421922
-1.4658000271946445
-0.3233043030872461
-0.19069804834421922
-1.4658000271946445
-0.323255050422633
-0.1902841477370521
-1.4642928693437562
-0.323255050422633
-0.1902841477370521
-1.4642928693437562
-0.323255050422633
-0.1902841477370521
-1.4642928693437562
-0.323255050422633
-0.1902841477370521
-1.4642928693437562
-0.32222048646321394
-0.19045028529373167
-1.4634047449622496
-0.32222048646321394
-0.19045028529373167
-1.4634047449622496
-0.32222048646321394
-0.19045028529373167
-1.4634047449622496
-0.32222048646321394
-0.19045028529373167
-1.4634047449622496
-0.32121006434259053
-0.19095582243696388
-1.4624590602998395
-0.32121006434259053
-0.19095582243696388
-1.4624590602998395
-0.32121006434259053
-0.19095582243696388
-1.4624590602998395
-0.32121006434259053
-0.19095582243696388
-1.4624590602998395
-0.32052115297211087
-0.1917817448567878
-1.4602857609266735
-0.32052115297211087
-0.1917817448567878
-1.4602857609266735
-0.32052115297211087
-0.1917817448567878
-1.4602857609266735
-0.32052115297211087
-0.1917817448567878
-1.4602857609266735
-0.3215104252941687
-0.19243693541507265
-1.4573425487522298
-0.3215104252941687
-0.19243693541507265
-1.4573425487522298
-0.3215104252941687
-0.19243693541507265
-1.4573425487522298
-0.3215104252941687
-0.19243693541507265
-1.4573425487522298
-0.3219557526505252
-0.19311212325701657
-1.4544559841942535
-0.3219557526505252
-0.19311212325701657
-1.4544559841942535
-0.3219557526505252
-0.19311212325701657
-1.4544559841942535
-0.3219557526505252
-0.19311212325701657
-1.4544559841942535
-0.3221310904993976
-0.19369899994245682
-1.4515261846066227
-0.3221310904993976
-0.19369899994245682
-1.4515261846066227
-0.3221310904993976
-0.19369899994245682
-1.4515261846066227
-0.3221310904993976
-0.19369899994245682
-1.4515261846066227
-0.32311213790688315
-0.19511679947310265
-1.4490730976862631
-0.32311213790688315
-0.19511679947310265
-1.4490730976862631
-0.32311213790688315
-0.19511679947310265
-1.4490730976862631
-0.32311213790688315
-0.19511679947310265
-1.4490730976862631
-0.32410039733378204
-0.19694952939717242
-1.446983659117499
-0.32410039733378204
-0.19694952939717242
-1.446983659117499
-0.32410039733378204
-0.19694952939717242
-1.446983659117499
-0.32410039733378204
-0.19694952939717242
-1.446983659117499
-0.3236563249593228
-0.19972235323714901
-1.4465636100954073
-0.3236563249593228
-0.19972235323714901
-1.4465636100954073
-0.3236563249593228
-0.19972235323714901
-1.4465636100954073
-0.3236563249593228
-0.19972235323714901
-1.4465636100954073
-0.32150185274115844
-0.20297421497874737
-1.446954965688484
-0.32150185274115844
-0.20297421497874737
-1.446954965688484
-0.32150185274115844
-0.20297421497874737
-1.446954965688484
-0.32150185274115844
-0.20297421497874737
-1.446954965688484
-0.3192532927998223
-0.20668922672520085
-1.447555340769402
-0.3192532927998223
-0.20668922672520085
-1.447555340769402
-0.3192532927998223
-0.20668922672520085
-1.447555340769402
-0.3192532927998223
-0.20668922672520085
-1.447555340769402
-0.3185073450072005
-0.21021593528073115
-1.4473137934535343
-0.3185073450072005
-0.21021593528073115
-1.4473137934535343
-0.3185073450072005
-0.21021593528073115
-1.4473137934535343
-0.3185073450072005
-0.21021593528073115
-1.4473137934535343
-0.3196298215241374
-0.21367476689261894
-1.4466968171524097
-0.3196298215241374
-0.21367476689261894
-1.4466968171524097
-0.3196298215241374
-0.21367476689261894
-1.4466968171524097
-0.3196298215241374
-0.21367476689261894
-1.4466968171524097
-0.3202816558703768
-0.21713889392934532
-1.4464787723386792
-0.3202816558703768
-0.21713889392934532
-1.4464787723386792
-0.3202816558703768
-0.21713889392934532
-1.4464787723386792
-0.3202816558703768
-0.21713889392934532
-1.4464787723386792
-0.31945844572226384
-0.220413316815224
-1.4468161095545495
-0.31945844572226384
-0.220413316815224
-1.4468161095545495
-0.31945844572226384
-0.220413316815224
-1.4468161095545495
-0.31945844572226384
-0.220413316815224
-1.4468161095545495
-0.31730064584077794
-0.22327022294116386
-1.4469498042173417
-0.31730064584077794
-0.22327022294116386
-1.4469498042173417
-0.31730064584077794
-0.22327022294116386
-1.4469498042173417
-0.31730064584077794
-0.22327022294116386
-1.4469498042173417
-0.31600107341648026
-0.22625785571168178
-1.4465254940484802
-0.31600107341648026
-0.22625785571168178
-1.4465254940484802
-0.31600107341648026
-0.22625785571168178
-1.4465254940484802
-0.31600107341648026
-0.22625785571168178
-1.4465254940484802
-0.31592729451145285
-0.2294161995055608
-1.4463606256138943
-0.31592729451145285
-0.2294161995055608
-1.4463606256138943
-0.31592729451145285
-0.2294161995055608
-1.4463606256138943
-0.31592729451145285
-0.2294161995055608
-1.4463606256138943
-0.3167639570717679
-0.23247135877173838
-1.4464552349114528
-0.3167639570717679
-0.23247135877173838
-1.4464552349114528
-0.3167639570717679
-0.23247135877173838
-1.4464552349114528
-0.3167639570717679
-0.23247135877173838
-1.4464552349114528
-0.31722153488249344
-0.2354146673812956
-1.4461679597927721
-0.31722153488249344
-0.2354146673812956
-1.4461679597927721
-0.31722153488249344
-0.2354146673812956
-1.4461679597927721
-0.31722153488249344
-0.2354146673812956
-1.4461679597927721
-0.3173127355537911
-0.23743213655246473
-1.4460820231339766
-0.3173127355537911
-0.23743213655246473
-1.4460820231339766
-0.3173127355537911
-0.23743213655246473
-1.4460820231339766
-0.3173127355537911
-0.23743213655246473
-1.4460820231339766
-0.3184418162538555
-0.23902447478391314
-1.4458453468257337
-0.3184418162538555
-0.23902447478391314
-1.4458453468257337
-0.3184418162538555
-0.23902447478391314
-1.4458453468257337
-0.3184418162538555
-0.23902447478391314
-1.4458453468257337
-0.3193963981263717
-0.23986934424528825
-1.4458422843060719
-0.3193963981263717
-0.23986934424528825
-1.4458422843060719
-0.3193963981263717
-0.23986934424528825
-1.4458422843060719
-0.3193963981263717
-0.23986934424528825
-1.4458422843060719
-0.3191665507679937
-0.24050894805660167
-1.445942218072279
-0.3191665507679937
-0.24050894805660167
-1.445942218072279
-0.3191665507679937
-0.24050894805660167
-1.445942218072279
-0.3191665507679937
-0.24050894805660167
-1.445942218072279
-0.3196003047702148
-0.2411746494184702
-1.445772074305873
-0.3196003047702148
-0.2411746494184702
-1.445772074305873
-0.3196003047702148
-0.2411746494184702
-1.445772074305873
-0.3196003047702148
-0.2411746494184702
-1.445772074305873
-0.31999557483431246
-0.2416765143109103
-1.445724994630015
-0.31999557483431246
-0.2416765143109103
-1.445724994630015
-0.31999557483431246
-0.2416765143109103
-1.445724994630015
-0.31999557483431246
-0.2416765143109103
-1.445724994630015
-0.3200628937629856
-0.2421775911643513
-1.445542804806367
-0.3200628937629856
-0.2421775911643513
-1.445542804806367
-0.3200628937629856
-0.2421775911643513
-1.445542804806367
-0.3200628937629856
-0.2421775911643513
-1.445542804806367
-0.3199688772752236
-0.24210022032878353
-1.445567203318113
-0.3199688772752236
-0.24210022032878353
-1.445567203318113
-0.3199688772752236
-0.24210022032878353
-1.445567203318113
-0.3199688772752236
-0.24210022032878353
-1.445567203318113
-0.3207821235587142
-0.24211705984938406
-1.4453711990594886
-0.3207821235587142
-0.24211705984938406
-1.4453711990594886
-0.3207821235587142
-0.24211705984938406
-1.4453711990594886
-0.3207821235587142
-0.24211705984938406
-1.4453711990594886
-0.32204689627942445
-0.2422306943724154
-1.4452712591698749
-0.32204689627942445
-0.2422306943724154
-1.4452712591698749
-0.32204689627942445
-0.2422306943724154
-1.4452712591698749
-0.32204689627942445
-0.2422306943724154
-1.4452712591698749
-0.3231422234608067
-0.2424791357605938
-1.4450016047912624
-0.3231422234608067
-0.2424791357605938
-1.4450016047912624
-0.3231422234608067
-0.2424791357605938
-1.4450016047912624
-0.3231422234608067
-0.2424791357605938
-1.4450016047912624
-0.3229716649881528
-0.24249304253076023
-1.4444008159549222
-0.3229716649881528
-0.24249304253076023
-1.4444008159549222
-0.3229716649881528
-0.24249304253076023
-1.4444008159549222
-0.3229716649881528
-0.24249304253076023
-1.4444008159549222
-0.32245997504028573
-0.2426799252262233
-1.4443497737039046
-0.32245997504028573
-0.2426799252262233
-1.4443497737039046
-0.32245997504028573
-0.2426799252262233
-1.4443497737039046
-0.32245997504028573
-0.2426799252262233
-1.4443497737039046
-0.32245997504028573
-0.2426799252262233
-1.4443497737039046
-0.32245997504028573
-0.2426799252262233
-1.4443497737039046
-0.32245997504028573
-0.2426799252262233
-1.4443497737039046
-0.32245997504028573
-0.2426799252262233
-1.4443497737039046
-0.3230300696406583
-0.24262784010949462
-1.444103398567999
-0.3230300696406583
-0.24262784010949462
-1.444103398567999
-0.3230300696406583
-0.24262784010949462
-1.444103398567999
-0.3230300696406583
-0.24262784010949462
-1.444103398567999
-0.32367930907813486
-0.24302389097098623
-1.4440407554522383
-0.32367930907813486
-0.24302389097098623
-1.4440407554522383
-0.32367930907813486
-0.24302389097098623
-1.4440407554522383
-0.32367930907813486
-0.24302389097098623
-1.4440407554522383
-0.32367930907813486
-0.24302389097098623
-1.4440407554522383
-0.32367930907813486
-0.24302389097098623
-1.4440407554522383
-0.32367930907813486
-0.24302389097098623
-1.4440407554522383
-0.32367930907813486
-0.24302389097098623
-1.4440407554522383
-0.32359972321583264
-0.24311521425621813
-1.4440356062398236
-0.32359972321583264
-0.24311521425621813
-1.4440356062398236
-0.32359972321583264
-0.24311521425621813
-1.4440356062398236
-0.32359972321583264
-0.24311521425621813
-1.4440356062398236
-0.32291436126132667
-0.24331623919593645
-1.444004124305387
-0.32291436126132667
-0.24331623919593645
-1.444004124305387
-0.32291436126132667
-0.24331623919593645
-1.444004124305387
-0.32291436126132667
-0.24331623919593645
-1.444004124305387
-0.3224171900648352
-0.24367178426265373
-1.4439236618002094
-0.3224171900648352
-0.24367178426265373
-1.4439236618002094
-0.3224171900648352
-0.24367178426265373
-1.4439236618002094
-0.3224171900648352
-0.24367178426265373
-1.4439236618002094
-0.3224171900648352
-0.24367178426265373
-1.4439236618002094
-0.3224171900648352
-0.24367178426265373
-1.4439236618002094
-0.3224171900648352
-0.24367178426265373
-1.4439236618002094
-0.3224171900648352
-0.24367178426265373
-1.4439236618002094
-0.32233759182202315
-0.2437631131499799
-1.4439185968368895
-0.32233759182202315
-0.2437631131499799
-1.4439185968368895
-0.32233759182202315
-0.2437631131499799
-1.4439185968368895
-0.32233759182202315
-0.2437631131499799
-1.4439185968368895
-0.3223180965517197
-0.24401304708604138
-1.4443160167052511
-0.3223180965517197
-0.24401304708604138
-1.4443160167052511
-0.3223180965517197
-0.24401304708604138
-1.4443160167052511
-0.3223180965517197
-0.24401304708604138
-1.4443160167052511
-0.32222399176552413
-0.24393578080771677
-1.444340596612525
-0.32222399176552413
-0.24393578080771677
-1.444340596612525
-0.32222399176552413
-0.24393578080771677
-1.444340596612525
-0.32222399176552413
-0.24393578080771677
-1.444340596612525
-0.32223847286151447
-0.2441043651333861
-1.4443109748025014
-0.32223847286151447
-0.2441043651333861
-1.4443109748025014
-0.32223847286151447
-0.2441043651333861
-1.4443109748025014
-0.32223847286151447
-0.2441043651333861
-1.4443109748025014
-0.32223847286151447
-0.2441043651333861
-1.4443109748025014
-0.32223847286151447
-0.2441043651333861
-1.4443109748025014
-0.32223847286151447
-0.2441043651333861
-1.4443109748025014
-0.32223847286151447
-0.2441043651333861
-1.4443109748025014
-0.322015490712849
-0.24434932659779568
-1.444742499776046
-0.322015490712849
-0.24434932659779568
-1.444742499776046
-0.322015490712849
-0.24434932659779568
-1.444742499776046
-0.322015490712849
-0.24434932659779568
-1.444742499776046
-0.32154416686014675
-0.24450217873006236
-1.4450445171027821
-0.32154416686014675
-0.24450217873006236
-1.4450445171027821
-0.32154416686014675
-0.24450217873006236
-1.4450445171027821
-0.32154416686014675
-0.24450217873006236
-1.4450445171027821
-0.32112616671724353
-0.24498727379470803
-1.4451934842997316
-0.32112616671724353
-0.24498727379470803
-1.4451934842997316
-0.32112616671724353
-0.24498727379470803
-1.4451934842997316
-0.32112616671724353
-0.24498727379470803
-1.4451934842997316
-0.32112616671724353
-0.24498727379470803
-1.4451934842997316
-0.32112616671724353
-0.24498727379470803
-1.4451934842997316
-0.32112616671724353
-0.24498727379470803
-1.4451934842997316
-0.32112616671724353
-0.24498727379470803
-1.4451934842997316
-0.32112616671724353
-0.24498727379470803
-1.4451934842997316
-0.32112616671724353
-0.24498727379470803
-1.4451934842997316
-0.32112616671724353
-0.24498727379470803
-1.4451934842997316
-0.32112616671724353
-0.24498727379470803
-1.4451934842997316
-0.32112616671724353
-0.24498727379470803
-1.4451934842997316
-0.32112616671724353
-0.24498727379470803
-1.4451934842997316
-0.32112616671724353
-0.24498727379470803
-1.4451934842997316
-0.32112616671724353
-0.24498727379470803
-1.4451934842997316
-0.3210464824651829
-0.24507855876532225
-1.4451885488104197
-0.3210464824651829
-0.24507855876532225
-1.4451885488104197
-0.3210464824651829
-0.24507855876532225
-1.4451885488104197
-0.3210464824651829
-0.24507855876532225
-1.4451885488104197
-0.3210464824651829
-0.24507855876532225
-1.4451885488104197
-0.3210464824651829
-0.24507855876532225
-1.4451885488104197
-0.3210464824651829
-0.24507855876532225
-1.4451885488104197
-0.3210464824651829
-0.24507855876532225
-1.4451885488104197
-0.3210464824651829
-0.24507855876532225
-1.4451885488104197
-0.3210464824651829
-0.24507855876532225
-1.4451885488104197
-0.3210464824651829
-0.24507855876532225
-1.4451885488104197
-0.3210464824651829
-0.24507855876532225
-1.4451885488104197
-0.32074486764236254
-0.24465419854418627
-1.4452120856618649
-0.32074486764236254
-0.24465419854418627
-1.4452120856618649
-0.32074486764236254
-0.24465419854418627
-1.4452120856618649
-0.32074486764236254
-0.24465419854418627
-1.4452120856618649
-0.3206873114821318
-0.2439797690959393
-1.4453300212232196
-0.3206873114821318
-0.2439797690959393
-1.4453300212232196
-0.3206873114821318
-0.2439797690959393
-1.4453300212232196
-0.3206873114821318
-0.2439797690959393
-1.4453300212232196
-0.32010573319966495
-0.24290439888675383
-1.4456786040980014
-0.32010573319966495
-0.24290439888675383
-1.4456786040980014
-0.32010573319966495
-0.24290439888675383
-1.4456786040980014
-0.32010573319966495
-0.24290439888675383
-1.4456786040980014
-0.31935100709765757
-0.24184272797991918
-1.4460458198535933
-0.31935100709765757
-0.24184272797991918
-1.4460458198535933
-0.31935100709765757
-0.24184272797991918
-1.4460458198535933
-0.31935100709765757
-0.24184272797991918
-1.4460458198535933
-0.3185584199365781
-0.24061695599308297
-1.4465353006159902
-0.3185584199365781
-0.24061695599308297
-1.4465353006159902
-0.3185584199365781
-0.24061695599308297
-1.4465353006159902
-0.3185584199365781
-0.24061695599308297
-1.4465353006159902
-0.3172973178552475
-0.23900339487982278
-1.4471443525054222
-0.3172973178552475
-0.23900339487982278
-1.4471443525054222
-0.3172973178552475
-0.23900339487982278
-1.4471443525054222
-0.3172973178552475
-0.23900339487982278
-1.4471443525054222
-0.3149757725561583
-0.23705628813694107
-1.4482094440072577
-0.3149757725561583
-0.23705628813694107
-1.4482094440072577
-0.3149757725561583
-0.23705628813694107
-1.4482094440072577
-0.3149757725561583
-0.23705628813694107
-1.4482094440072577
-0.3126583418458209
-0.23456482033696563
-1.449707437307901
-0.3126583418458209
-0.23456482033696563
-1.449707437307901
-0.3126583418458209
-0.23456482033696563
-1.449707437307901
-0.3126583418458209
-0.23456482033696563
-1.449707437307901
-0.31498182781047207
-0.23216144714120956
-1.4513958889369059
-0.31498182781047207
-0.23216144714120956
-1.4513958889369059
-0.31498182781047207
-0.23216144714120956
-1.4513958889369059
-0.31498182781047207
-0.23216144714120956
-1.4513958889369059
-0.31417845186174165
-0.22985432985023027
-1.4528469564707758
-0.31417845186174165
-0.22985432985023027
-1.4528469564707758
-0.31417845186174165
-0.22985432985023027
-1.4528469564707758
-0.31417845186174165
-0.22985432985023027
-1.4528469564707758
-0.3093545571917942
-0.22676823169534568
-1.455711511308121
-0.3093545571917942
-0.22676823169534568
-1.455711511308121
-0.3093545571917942
-0.22676823169534568
-1.455711511308121
-0.3093545571917942
-0.22676823169534568
-1.455711511308121
-0.3061974221343317
-0.22102255048759523
-1.4564922779462992
-0.3061974221343317
-0.22102255048759523
-1.4564922779462992
-0.3061974221343317
-0.22102255048759523
-1.4564922779462992
-0.3061974221343317
-0.22102255048759523
-1.4564922779462992
-0.30730070543862087
-0.2159375755158697
-1.4551554358249326
-0.30730070543862087
-0.2159375755158697
-1.4551554358249326
-0.30730070543862087
-0.2159375755158697
-1.4551554358249326
-0.30730070543862087
-0.2159375755158697
-1.4551554358249326
-0.3102528148756274
-0.21323344896181617
-1.4567440908785145
-0.3102528148756274
-0.21323344896181617
-1.4567440908785145
-0.3102528148756274
-0.21323344896181617
-1.4567440908785145
-0.3102528148756274
-0.21323344896181617
-1.4567440908785145
-0.31409946812002176
-0.21171809561638127
-1.4559326665753272
-0.31409946812002176
-0.21171809561638127
-1.4559326665753272
-0.31409946812002176
-0.21171809561638127
-1.4559326665753272
-0.31409946812002176
-0.21171809561638127
-1.4559326665753272
-0.31647916328827386
-0.21210990886558526
-1.4562071702749113
-0.31647916328827386
-0.21210990886558526
-1.4562071702749113
-0.31647916328827386
-0.21210990886558526
-1.4562071702749113
-0.31647916328827386
-0.21210990886558526
-1.4562071702749113
-0.3171081894030571
-0.2135188706884555
-1.4569575920348141
-0.3171081894030571
-0.2135188706884555
-1.4569575920348141
-0.3171081894030571
-0.2135188706884555
-1.4569575920348141
-0.3171081894030571
-0.2135188706884555
-1.4569575920348141
-0.3208287747810633
-0.21404493481088974
-1.4601317532139788
-0.3208287747810633
-0.21404493481088974
-1.4601317532139788
-0.3208287747810633
-0.21404493481088974
-1.4601317532139788
-0.3208287747810633
-0.21404493481088974
-1.4601317532139788
-0.32694275831791736
-0.21360788852921292
-1.463280467443509
-0.32694275831791736
-0.21360788852921292
-1.463280467443509
-0.32694275831791736
-0.21360788852921292
-1.463280467443509
-0.32694275831791736
-0.21360788852921292
-1.463280467443509
-0.32771937256009
-0.2128399214757159
-1.465257519847091
-0.32771937256009
-0.2128399214757159
-1.465257519847091
-0.32771937256009
-0.2128399214757159
-1.465257519847091
-0.32771937256009
-0.2128399214757159
-1.465257519847091
-0.32718848133989464
-0.21268627925774575
-1.465875056389827
-0.32718848133989464
-0.21268627925774575
-1.465875056389827
-0.32718848133989464
-0.21268627925774575
-1.465875056389827
-0.32718848133989464
-0.21268627925774575
-1.465875056389827
-0.3276794286793212
-0.2127312465311249
-1.4662502461929445
-0.3276794286793212
-0.2127312465311249
-1.4662502461929445
-0.3276794286793212
-0.2127312465311249
-1.4662502461929445
-0.3276794286793212
-0.2127312465311249
-1.4662502461929445
-0.32674987764250774
-0.21212272341936378
-1.4671629738043332
-0.32674987764250774
-0.21212272341936378
-1.4671629738043332
-0.32674987764250774
-0.21212272341936378
-1.4671629738043332
-0.32674987764250774
-0.21212272341936378
-1.4671629738043332
-0.32722305769689747
-0.21146780121299733
-1.4687180618937903
-0.32722305769689747
-0.21146780121299733
-1.4687180618937903
-0.32722305769689747
-0.21146780121299733
-1.4687180618937903
-0.32722305769689747
-0.21146780121299733
-1.4687180618937903
-0.3288273513775489
-0.21106403843722
-1.469835940365861
-0.3288273513775489
-0.21106403843722
-1.469835940365861
-0.3288273513775489
-0.21106403843722
-1.469835940365861
-0.3288273513775489
-0.21106403843722
-1.469835940365861
-0.3309049823585744
-0.21051702395150723
-1.4712792157140027
-0.3309049823585744
-0.21051702395150723
-1.4712792157140027
-0.3309049823585744
-0.21051702395150723
-1.4712792157140027
-0.3309049823585744
-0.21051702395150723
-1.4712792157140027
-0.33348036846413115
-0.2104064149946234
-1.4726754789182317
-0.33348036846413115
-0.2104064149946234
-1.4726754789182317
-0.33348036846413115
-0.2104064149946234
-1.4726754789182317
-0.33348036846413115
-0.2104064149946234
-1.4726754789182317
-0.33399147450790595
-0.21048601708868428
-1.4743657078633343
-0.33399147450790595
-0.21048601708868428
-1.4743657078633343
-0.33399147450790595
-0.21048601708868428
-1.4743657078633343
-0.33399147450790595
-0.21048601708868428
-1.4743657078633343
-0.334818896045607
-0.21076744417030127
-1.4757206164272434
-0.334818896045607
-0.21076744417030127
-1.4757206164272434
-0.334818896045607
-0.21076744417030127
-1.4757206164272434
-0.334818896045607
-0.21076744417030127
-1.4757206164272434
-0.33652785395799234
-0.21063902880522833
-1.4762502506261321
-0.33652785395799234
-0.21063902880522833
-1.4762502506261321
-0.33652785395799234
-0.21063902880522833
-1.4762502506261321
-0.33652785395799234
-0.21063902880522833
-1.4762502506261321
-0.3373643635331775
-0.2101001596160346
-1.4763374711406836
-0.3373643635331775
-0.2101001596160346
-1.4763374711406836
-0.3373643635331775
-0.2101001596160346
-1.4763374711406836
-0.3373643635331775
-0.2101001596160346
-1.4763374711406836
-0.3358410037713852
-0.20911364775589047
-1.4759781760550965
-0.3358410037713852
-0.20911364775589047
-1.4759781760550965
-0.3358410037713852
-0.20911364775589047
-1.4759781760550965
-0.3358410037713852
-0.20911364775589047
-1.4759781760550965
-0.33547865821968353
-0.20801561971658633
-1.4762104000016139
-0.33547865821968353
-0.20801561971658633
-1.4762104000016139
-0.33547865821968353
-0.20801561971658633
-1.4762104000016139
-0.33547865821968353
-0.20801561971658633
-1.4762104000016139
-0.337428749859569
-0.2073962666829356
-1.4765397366256148
-0.337428749859569
-0.2073962666829356
-1.4765397366256148
-0.337428749859569
-0.2073962666829356
-1.4765397366256148
-0.337428749859569
-0.2073962666829356
-1.4765397366256148
-0.3387679873402568
-0.2070760215128315
-1.4769744622503616
-0.3387679873402568
-0.2070760215128315
-1.4769744622503616
-0.3387679873402568
-0.2070760215128315
-1.4769744622503616
-0.3387679873402568
-0.2070760215128315
-1.4769744622503616
-0.3384688444804703
-0.20684578358268055
-1.4771367498436383
-0.3384688444804703
-0.20684578358268055
-1.4771367498436383
-0.3384688444804703
-0.20684578358268055
-1.4771367498436383
-0.3384688444804703
-0.20684578358268055
-1.4771367498436383
-0.337581133359031
-0.20725167860362625
-1.4773427306447868
-0.337581133359031
-0.20725167860362625
-1.4773427306447868
-0.337581133359031
-0.20725167860362625
-1.4773427306447868
-0.337581133359031
-0.20725167860362625
-1.4773427306447868
-0.33802287239819656
-0.20739027888763856
-1.4782368671930997
-0.33802287239819656
-0.20739027888763856
-1.4782368671930997
-0.33802287239819656
-0.20739027888763856
-1.4782368671930997
-0.33802287239819656
-0.20739027888763856
-1.4782368671930997
-0.33952938582171377
-0.2072591833314016
-1.47879720777954
-0.33952938582171377
-0.2072591833314016
-1.47879720777954
-0.33952938582171377
-0.2072591833314016
-1.47879720777954
-0.33952938582171377
-0.2072591833314016
-1.47879720777954
-0.33961690107005016
-0.2077586960822071
-1.4791388214461587
-0.33961690107005016
-0.2077586960822071
-1.4791388214461587
-0.33961690107005016
-0.2077586960822071
-1.4791388214461587
-0.33961690107005016
-0.2077586960822071
-1.4791388214461587
-0.33953609215545216
-0.20784854203371578
-1.4791319272785357
-0.33953609215545216
-0.20784854203371578
-1.4791319272785357
-0.33953609215545216
-0.20784854203371578
-1.4791319272785357
-0.33953609215545216
-0.20784854203371578
-1.4791319272785357
-0.3401319482287853
-0.207802329063628
-1.4794231089166614
-0.3401319482287853
-0.207802329063628
-1.4794231089166614
-0.3401319482287853
-0.207802329063628
-1.4794231089166614
-0.3401319482287853
-0.207802329063628
-1.4794231089166614
-0.34053038225032545
-0.20755193855083287
-1.4795998734076625
-0.34053038225032545
-0.20755193855083287
-1.4795998734076625
-0.34053038225032545
-0.20755193855083287
-1.4795998734076625
-0.34053038225032545
-0.20755193855083287
-1.4795998734076625
-0.340899934547155
-0.20694074467986404
-1.4797570057694265
-0.340899934547155
-0.20694074467986404
-1.4797570057694265
-0.340899934547155
-0.20694074467986404
-1.4797570057694265
-0.340899934547155
-0.20694074467986404
-1.4797570057694265
-0.3410617648245065
-0.2061945780927441
-1.4795175123343667
-0.3410617648245065
-0.2061945780927441
-1.4795175123343667
-0.3410617648245065
-0.2061945780927441
-1.4795175123343667
-0.3410617648245065
-0.2061945780927441
-1.4795175123343667
-0.34081944643709944
-0.205897513223227
-1.4792429425849993
-0.34081944643709944
-0.205897513223227
-1.4792429425849993
-0.34081944643709944
-0.205897513223227
-1.4792429425849993
-0.34081944643709944
-0.205897513223227
-1.4792429425849993
-0.34081944643709944
-0.205897513223227
-1.4792429425849993
-0.34081944643709944
-0.205897513223227
-1.4792429425849993
-0.34081944643709944
-0.205897513223227
-1.4792429425849993
-0.34081944643709944
-0.205897513223227
-1.4792429425849993
-0.34081944643709944
-0.205897513223227
-1.4792429425849993
-0.34081944643709944
-0.205897513223227
-1.4792429425849993
-0.34081944643709944
-0.205897513223227
-1.4792429425849993
-0.34081944643709944
-0.205897513223227
-1.4792429425849993
-0.3412563416472104
-0.2059550849184783
-1.479186459037806
-0.3412563416472104
-0.2059550849184783
-1.479186459037806
-0.3412563416472104
-0.2059550849184783
-1.479186459037806
-0.3412563416472104
-0.2059550849184783
-1.479186459037806
-0.3411645695062973
-0.20587600832548963
-1.4792099839515354
-0.3411645695062973
-0.20587600832548963
-1.4792099839515354
-0.3411645695062973
-0.20587600832548963
-1.4792099839515354
-0.3411645695062973
-0.20587600832548963
-1.4792099839515354
-0.3405810202445486
-0.20574642962018497
-1.4788570032941037
-0.3405810202445486
-0.20574642962018497
-1.4788570032941037
-0.3405810202445486
-0.20574642962018497
-1.4788570032941037
-0.3405810202445486
-0.20574642962018497
-1.4788570032941037
-0.34067660909476577
-0.20540491267892566
-1.4784686977284414
-0.34067660909476577
-0.20540491267892566
-1.4784686977284414
-0.34067660909476577
-0.20540491267892566
-1.4784686977284414
-0.34067660909476577
-0.20540491267892566
-1.4784686977284414
-0.3410927818703499
-0.2047797670883152
-1.4784428135940992
-0.3410927818703499
-0.2047797670883152
-1.4784428135940992
-0.3410927818703499
-0.2047797670883152
-1.4784428135940992
-0.3410927818703499
-0.2047797670883152
-1.4784428135940992
-0.3414065355444648
-0.20447324144417103
-1.4787245118842933
-0.3414065355444648
-0.20447324144417103
-1.4787245118842933
-0.3414065355444648
-0.20447324144417103
-1.4787245118842933
-0.3414065355444648
-0.20447324144417103
-1.4787245118842933
-0.3420855552939002
-0.2042612005565231
-1.4786897959572045
-0.3420855552939002
-0.2042612005565231
-1.4786897959572045
-0.3420855552939002
-0.2042612005565231
-1.4786897959572045
-0.3420855552939002
-0.2042612005565231
-1.4786897959572045
-0.34226278350813294
-0.20348473795945962
-1.4782786278877351
-0.34226278350813294
-0.20348473795945962
-1.4782786278877351
-0.34226278350813294
-0.20348473795945962
-1.4782786278877351
-0.34226278350813294
-0.20348473795945962
-1.4782786278877351
-0.3419362480692669
-0.20254891613566314
-1.4783906687656403
-0.3419362480692669
-0.20254891613566314
-1.4783906687656403
-0.3419362480692669
-0.20254891613566314
-1.4783906687656403
-0.3419362480692669
-0.20254891613566314
-1.4783906687656403
-0.3422298789120024
-0.20182873370145785
-1.4784001696052032
-0.3422298789120024
-0.20182873370145785
-1.4784001696052032
-0.3422298789120024
-0.20182873370145785
-1.4784001696052032
-0.3422298789120024
-0.20182873370145785
-1.4784001696052032
-0.34289892180839737
-0.2011027714233892
-1.4783668384235569
-0.34289892180839737
-0.2011027714233892
-1.4783668384235569
-0.34289892180839737
-0.2011027714233892
-1.4783668384235569
-0.34289892180839737
-0.2011027714233892
-1.4783668384235569
-0.34336972949055894
-0.20017286510813023
-1.4782192976685207
-0.34336972949055894
-0.20017286510813023
-1.4782192976685207
-0.34336972949055894
-0.20017286510813023
-1.4782192976685207
-0.34336972949055894
-0.20017286510813023
-1.4782192976685207
-0.3436704955926868
-0.1994756301644592
-1.4783103765713541
-0.3436704955926868
-0.1994756301644592
-1.4783103765713541
-0.3436704955926868
-0.1994756301644592
-1.4783103765713541
-0.3436704955926868
-0.1994756301644592
-1.4783103765713541
-0.34347846816900707
-0.19872761893468766
-1.4780237573974042
-0.34347846816900707
-0.19872761893468766
-1.4780237573974042
-0.34347846816900707
-0.19872761893468766
-1.4780237573974042
-0.34347846816900707
-0.19872761893468766
-1.4780237573974042
-0.34318984804461283
-0.1980996067111009
-1.4779018739433893
-0.34318984804461283
-0.1980996067111009
-1.4779018739433893
-0.34318984804461283
-0.1980996067111009
-1.4779018739433893
-0.34318984804461283
-0.1980996067111009
-1.4779018739433893
-0.34318984804461283
-0.1980996067111009
-1.4779018739433893
-0.34318984804461283
-0.1980996067111009
-1.4779018739433893
-0.34318984804461283
-0.1980996067111009
-1.4779018739433893
-0.34318984804461283
-0.1980996067111009
-1.4779018739433893
-0.34257377840467995
-0.19803007242862125
-1.4778916479819637
-0.34257377840467995
-0.19803007242862125
-1.4778916479819637
-0.34257377840467995
-0.19803007242862125
-1.4778916479819637
-0.34257377840467995
-0.19803007242862125
-1.4778916479819637
-0.34248212576536147
-0.19795097460712033
-1.4779148319625233
-0.34248212576536147
-0.19795097460712033
-1.4779148319625233
-0.34248212576536147
-0.19795097460712033
-1.4779148319625233
-0.34248212576536147
-0.19795097460712033
-1.4779148319625233
-0.34248212576536147
-0.19795097460712033
-1.4779148319625233
-0.34248212576536147
-0.19795097460712033
-1.4779148319625233
-0.34248212576536147
-0.19795097460712033
-1.4779148319625233
-0.34248212576536147
-0.19795097460712033
-1.4779148319625233
-0.3424014499276695
-0.19804083736012523
-1.4779073948625476
-0.3424014499276695
-0.19804083736012523
-1.4779073948625476
-0.3424014499276695
-0.19804083736012523
-1.4779073948625476
-0.3424014499276695
-0.19804083736012523
-1.4779073948625476
-0.34293207043515866
-0.19839924904839698
-1.4780518342678841
-0.34293207043515866
-0.19839924904839698
-1.4780518342678841
-0.34293207043515866
-0.19839924904839698
-1.4780518342678841
-0.34293207043515866
-0.19839924904839698
-1.4780518342678841
-0.34293207043515866
-0.19839924904839698
-1.4780518342678841
-0.34293207043515866
-0.19839924904839698
-1.4780518342678841
-0.34293207043515866
-0.19839924904839698
-1.4780518342678841
-0.34293207043515866
-0.19839924904839698
-1.4780518342678841
-0.34302372417765076
-0.19847834170424172
-1.4780286099159137
-0.34302372417765076
-0.19847834170424172
-1.4780286099159137
-0.34302372417765076
-0.19847834170424172
-1.4780286099159137
-0.34302372417765076
-0.19847834170424172
-1.4780286099159137
-0.3424344094639706
-0.19854771046778216
-1.4778155390356538
-0.3424344094639706
-0.19854771046778216
-1.4778155390356538
-0.3424344094639706
-0.19854771046778216
-1.4778155390356538
-0.3424344094639706
-0.19854771046778216
-1.4778155390356538
-0.3424344094639706
-0.19854771046778216
-1.4778155390356538
-0.3424344094639706
-0.19854771046778216
-1.4778155390356538
-0.3424344094639706
-0.19854771046778216
-1.4778155390356538
-0.3424344094639706
-0.19854771046778216
-1.4778155390356538
-0.3429614620406306
-0.19875992337612824
-1.4780711827297937
-0.3429614620406306
-0.19875992337612824
-1.4780711827297937
-0.3429614620406306
-0.19875992337612824
-1.4780711827297937
-0.3429614620406306
-0.19875992337612824
-1.4780711827297937
-0.3436472723704493
-0.1985707142278089
-1.4781193497030127
-0.3436472723704493
-0.1985707142278089
-1.4781193497030127
-0.3436472723704493
-0.1985707142278089
-1.4781193497030127
-0.3436472723704493
-0.1985707142278089
-1.4781193497030127
-0.3436472723704493
-0.1985707142278089
-1.4781193497030127
-0.3436472723704493
-0.1985707142278089
-1.4781193497030127
-0.3436472723704493
-0.1985707142278089
-1.4781193497030127
-0.3436472723704493
-0.1985707142278089
-1.4781193497030127
-0.3436472723704493
-0.1985707142278089
-1.4781193497030127
-0.3436472723704493
-0.1985707142278089
-1.4781193497030127
-0.3436472723704493
-0.1985707142278089
-1.4781193497030127
-0.3436472723704493
-0.1985707142278089
-1.4781193497030127
-0.3435481535107862
-0.19846882940313407
-1.478061931263405
-0.3435481535107862
-0.19846882940313407
-1.478061931263405
-0.3435481535107862
-0.19846882940313407
-1.478061931263405
-0.3435481535107862
-0.19846882940313407
-1.478061931263405
-0.3435481535107862
-0.19846882940313407
-1.478061931263405
-0.3435481535107862
-0.19846882940313407
-1.478061931263405
-0.3435481535107862
-0.19846882940313407
-1.478061931263405
-0.3435481535107862
-0.19846882940313407
-1.478061931263405
-0.343120172188223
-0.19835841100010634
-1.47786373251482
-0.343120172188223
-0.19835841100010634
-1.47786373251482
-0.343120172188223
-0.19835841100010634
-1.47786373251482
-0.343120172188223
-0.19835841100010634
-1.47786373251482
-0.343120172188223
-0.19835841100010634
-1.47786373251482
-0.343120172188223
-0.19835841100010634
-1.47786373251482
-0.343120172188223
-0.19835841100010634
-1.47786373251482
-0.343120172188223
-0.19835841100010634
-1.47786373251482
-0.34347704109300226
-0.19816058492703545
-1.4777712470901117
-0.34347704109300226
-0.19816058492703545
-1.4777712470901117
-0.34347704109300226
-0.19816058492703545
-1.4777712470901117
-0.34347704109300226
-0.19816058492703545
-1.4777712470901117
-0.34382166071717296
-0.19813900990402117
-1.4777397505970937
-0.34382166071717296
-0.19813900990402117
-1.4777397505970937
-0.34382166071717296
-0.19813900990402117
-1.4777397505970937
-0.34382166071717296
-0.19813900990402117
-1.4777397505970937
-0.3443507919561444
-0.1979303280121619
-1.4776316544208303
-0.3443507919561444
-0.1979303280121619
-1.4776316544208303
-0.3443507919561444
-0.1979303280121619
-1.4776316544208303
-0.3443507919561444
-0.1979303280121619
-1.4776316544208303
-0.3443507919561444
-0.1979303280121619
-1.4776316544208303
-0.3443507919561444
-0.1979303280121619
-1.4776316544208303
-0.3443507919561444
-0.1979303280121619
-1.4776316544208303
-0.3443507919561444
-0.1979303280121619
-1.4776316544208303
-0.3446130485439148
-0.19743140850917953
-1.4773405276374658
-0.3446130485439148
-0.19743140850917953
-1.4773405276374658
-0.3446130485439148
-0.19743140850917953
-1.4773405276374658
-0.3446130485439148
-0.19743140850917953
-1.4773405276374658
-0.3444001269990108
-0.19691266169003815
-1.4773679335816676
-0.3444001269990108
-0.19691266169003815
-1.4773679335816676
-0.3444001269990108
-0.19691266169003815
-1.4773679335816676
-0.3444001269990108
-0.19691266169003815
-1.4773679335816676
-0.34505268915166587
-0.19621647905414524
-1.4775093921205826
-0.34505268915166587
-0.19621647905414524
-1.4775093921205826
-0.34505268915166587
-0.19621647905414524
-1.4775093921205826
-0.34505268915166587
-0.19621647905414524
-1.4775093921205826
-0.3454106839535416
-0.19559730161892824
-1.4770541806747102
-0.3454106839535416
-0.19559730161892824
-1.4770541806747102
-0.3454106839535416
-0.19559730161892824
-1.4770541806747102
-0.3454106839535416
-0.19559730161892824
-1.4770541806747102
-0.34514802913241327
-0.19510797572809818
-1.4767295095688355
-0.34514802913241327
-0.19510797572809818
-1.4767295095688355
-0.34514802913241327
-0.19510797572809818
-1.4767295095688355
-0.34514802913241327
-0.19510797572809818
-1.4767295095688355
-0.3450674524521334
-0.1951978656386342
-1.4767218220618294
-0.3450674524521334
-0.1951978656386342
-1.4767218220618294
-0.3450674524521334
-0.1951978656386342
-1.4767218220618294
-0.3450674524521334
-0.1951978656386342
-1.4767218220618294
-0.3450674524521334
-0.1951978656386342
-1.4767218220618294
-0.3450674524521334
-0.1951978656386342
-1.4767218220618294
-0.3450674524521334
-0.1951978656386342
-1.4767218220618294
-0.3450674524521334
-0.1951978656386342
-1.4767218220618294
-0.34498687461100874
-0.19528775663943684
-1.4767141417603242
-0.34498687461100874
-0.19528775663943684
-1.4767141417603242
-0.34498687461100874
-0.19528775663943684
-1.4767141417603242
-0.34498687461100874
-0.19528775663943684
-1.4767141417603242
-0.34507850851540806
-0.19536680145433877
-1.4766909924046456
-0.34507850851540806
-0.19536680145433877
-1.4766909924046456
-0.34507850851540806
-0.19536680145433877
-1.4766909924046456
-0.34507850851540806
-0.19536680145433877
-1.4766909924046456
-0.34433011712343997
-0.1961833325733537
-1.4767138388206735
-0.34433011712343997
-0.1961833325733537
-1.4767138388206735
-0.34433011712343997
-0.1961833325733537
-1.4767138388206735
-0.34433011712343997
-0.1961833325733537
-1.4767138388206735
-0.34336702874813796
-0.1969019356306826
-1.477128188840205
-0.34336702874813796
-0.1969019356306826
-1.477128188840205
-0.34336702874813796
-0.1969019356306826
-1.477128188840205
-0.34336702874813796
-0.1969019356306826
-1.477128188840205
-0.34284722064853496
-0.1977003857776603
-1.4775693828964631
-0.34284722064853496
-0.1977003857776603
-1.4775693828964631
-0.34284722064853496
-0.1977003857776603
-1.4775693828964631
-0.34284722064853496
-0.1977003857776603
-1.4775693828964631
-0.3427816952775926
-0.19874791130455458
-1.4780063142279605
-0.3427816952775926
-0.19874791130455458
-1.4780063142279605
-0.3427816952775926
-0.19874791130455458
-1.4780063142279605
-0.3427816952775926
-0.19874791130455458
-1.4780063142279605
-0.3440164601936304
-0.19961511487189448
-1.4776317374831656
-0.3440164601936304
-0.19961511487189448
-1.4776317374831656
-0.3440164601936304
-0.19961511487189448
-1.4776317374831656
-0.3440164601936304
-0.19961511487189448
-1.4776317374831656
-0.3447713813488757
-0.20025486697901945
-1.476817645810204
-0.3447713813488757
-0.20025486697901945
-1.476817645810204
-0.3447713813488757
-0.20025486697901945
-1.476817645810204
-0.3447713813488757
-0.20025486697901945
-1.476817645810204
-0.34258794309287727
-0.20058310509748323
-1.476820606749768
-0.34258794309287727
-0.20058310509748323
-1.476820606749768
-0.34258794309287727
-0.20058310509748323
-1.476820606749768
-0.34258794309287727
-0.20058310509748323
-1.476820606749768
-0.339176714682919
-0.20057426384119637
-1.4766632889825666
-0.339176714682919
-0.20057426384119637
-1.4766632889825666
-0.339176714682919
-0.20057426384119637
-1.4766632889825666
-0.339176714682919
-0.20057426384119637
-1.4766632889825666
-0.33853718501005436
-0.20055775691011196
-1.4743601056212143
-0.33853718501005436
-0.20055775691011196
-1.4743601056212143
-0.3404465817959411
-0.20146827356373673
-1.4711727924064348
-0.3404465817959411
-0.20146827356373673
-1.4711727924064348
-0.3404465817959411
-0.20146827356373673
-1.4711727924064348
-0.3404465817959411
-0.20146827356373673
-1.4711727924064348
-0.3404465817959411
-0.20146827356373673
-1.4711727924064348
-0.3404465817959411
-0.20146827356373673
-1.4711727924064348
-0.3394712557549758
-0.20324988013295292
-1.4699952976026123
-0.3394712557549758
-0.20324988013295292
-1.4699952976026123
-0.3394712557549758
-0.20324988013295292
-1.4699952976026123
-0.3394712557549758
-0.20324988013295292
-1.4699952976026123
-0.3362001911175622
-0.2059211890084698
-1.4700680040618979
-0.3362001911175622
-0.2059211890084698
-1.4700680040618979
-0.3362001911175622
-0.2059211890084698
-1.4700680040618979
-0.3362001911175622
-0.2059211890084698
-1.4700680040618979
-0.3321490119159815
-0.20906869536366773
-1.4696250263805473
-0.3321490119159815
-0.20906869536366773
-1.4696250263805473
-0.3321490119159815
-0.20906869536366773
-1.4696250263805473
-0.3321490119159815
-0.20906869536366773
-1.4696250263805473
-0.3308287514689411
-0.21080098844020637
-1.4675404487561718
-0.3308287514689411
-0.21080098844020637
-1.4675404487561718
-0.3317027863724011
-0.21221863106843525
-1.4655195159336745
-0.3317027863724011
-0.21221863106843525
-1.4655195159336745
-0.3317027863724011
-0.21221863106843525
-1.4655195159336745
-0.3317027863724011
-0.21221863106843525
-1.4655195159336745
-0.3317027863724011
-0.21221863106843525
-1.4655195159336745
-0.3317027863724011
-0.21221863106843525
-1.4655195159336745
-0.33231691185053586
-0.21411455745755803
-1.4643299783955144
-0.33231691185053586
-0.21411455745755803
-1.4643299783955144
-0.33231691185053586
-0.21411455745755803
-1.4643299783955144
-0.33231691185053586
-0.21411455745755803
-1.4643299783955144
-0.33125665593929843
-0.21644671965758797
-1.46431359913248
-0.33125665593929843
-0.21644671965758797
-1.46431359913248
-0.33125665593929843
-0.21644671965758797
-1.46431359913248
-0.33125665593929843
-0.21644671965758797
-1.46431359913248
-0.3296626717134797
-0.21933104544493648
-1.4638302552762252
-0.3296626717134797
-0.21933104544493648
-1.4638302552762252
-0.3296626717134797
-0.21933104544493648
-1.4638302552762252
-0.3296626717134797
-0.21933104544493648
-1.4638302552762252
-0.329294016913549
-0.22253837182763508
-1.4622645901836033
-0.329294016913549
-0.22253837182763508
-1.4622645901836033
-0.32840733672607375
-0.22598388949530146
-1.4615150232474345
-0.32840733672607375
-0.22598388949530146
-1.4615150232474345
-0.32840733672607375
-0.22598388949530146
-1.4615150232474345
-0.32840733672607375
-0.22598388949530146
-1.4615150232474345
-0.32840733672607375
-0.22598388949530146
-1.4615150232474345
-0.32840733672607375
-0.22598388949530146
-1.4615150232474345
-0.3288964817271226
-0.22960384368736997
-1.4610978860891377
-0.3288964817271226
-0.22960384368736997
-1.4610978860891377
-0.3288964817271226
-0.22960384368736997
-1.4610978860891377
-0.3288964817271226
-0.22960384368736997
-1.4610978860891377
-0.3277049397826788
-0.2338045927706839
-1.4611420125576011
-0.3277049397826788
-0.2338045927706839
-1.4611420125576011
-0.32539206402064597
-0.23772881864587533
-1.4608528648316805
-0.32539206402064597
-0.23772881864587533
-1.4608528648316805
-0.32539206402064597
-0.23772881864587533
-1.4608528648316805
-0.32539206402064597
-0.23772881864587533
-1.4608528648316805
-0.32390912127440247
-0.2418687452944699
-1.4604273816174922
-0.32390912127440247
-0.2418687452944699
-1.4604273816174922
-0.32390912127440247
-0.2418687452944699
-1.4604273816174922
-0.32390912127440247
-0.2418687452944699
-1.4604273816174922
-0.3228950891172049
-0.24585971890123348
-1.4603252539670815
-0.3228950891172049
-0.24585971890123348
-1.4603252539670815
-0.3228950891172049
-0.24585971890123348
-1.4603252539670815
-0.3228950891172049
-0.24585971890123348
-1.4603252539670815
-0.32301889466395234
-0.24975568999043943
-1.4603512235298723
-0.32301889466395234
-0.24975568999043943
-1.4603512235298723
-0.32301889466395234
-0.24975568999043943
-1.4603512235298723
-0.32301889466395234
-0.24975568999043943
-1.4603512235298723
-0.32348791314885905
-0.2530387068638954
-1.459995752712417
-0.32348791314885905
-0.2530387068638954
-1.459995752712417
-0.32348791314885905
-0.2530387068638954
-1.459995752712417
-0.32348791314885905
-0.2530387068638954
-1.459995752712417
-0.3233273779818551
-0.25586774439186244
-1.4594507159593415
-0.3233273779818551
-0.25586774439186244
-1.4594507159593415
-0.3233273779818551
-0.25586774439186244
-1.4594507159593415
-0.3233273779818551
-0.25586774439186244
-1.4594507159593415
-0.3227582990112228
-0.2582458924572597
-1.4592113285263177
-0.3227582990112228
-0.2582458924572597
-1.4592113285263177
-0.3227582990112228
-0.2582458924572597
-1.4592113285263177
-0.3227582990112228
-0.2582458924572597
-1.4592113285263177
-0.32364773087279225
-0.2604826011381007
-1.4590619429896592
-0.32364773087279225
-0.2604826011381007
-1.4590619429896592
-0.32364773087279225
-0.2604826011381007
-1.4590619429896592
-0.32364773087279225
-0.2604826011381007
-1.4590619429896592
-0.3237365241966667
-0.2623032596229308
-1.4588267239074466
-0.3237365241966667
-0.2623032596229308
-1.4588267239074466
-0.3237365241966667
-0.2623032596229308
-1.4588267239074466
-0.3237365241966667
-0.2623032596229308
-1.4588267239074466
-0.3232987133281597
-0.2633779497643782
-1.4587928652625974
-0.3232987133281597
-0.2633779497643782
-1.4587928652625974
-0.3232987133281597
-0.2633779497643782
-1.4587928652625974
-0.3232987133281597
-0.2633779497643782
-1.4587928652625974
-0.32346473102466916
-0.2643225650439951
-1.458698658358966
-0.32346473102466916
-0.2643225650439951
-1.458698658358966
-0.32346473102466916
-0.2643225650439951
-1.458698658358966
-0.32346473102466916
-0.2643225650439951
-1.458698658358966
-0.3244472235174139
-0.26494743009791244
-1.4583633394221078
-0.3244472235174139
-0.26494743009791244
-1.4583633394221078
-0.3244472235174139
-0.26494743009791244
-1.4583633394221078
-0.3244472235174139
-0.26494743009791244
-1.4583633394221078
-0.3256046141490405
-0.2655587767565314
-1.4580056038429667
-0.3256046141490405
-0.2655587767565314
-1.4580056038429667
-0.3256046141490405
-0.2655587767565314
-1.4580056038429667
-0.3256046141490405
-0.2655587767565314
-1.4580056038429667
-0.3256046141490405
-0.2655587767565314
-1.4580056038429667
-0.3256046141490405
-0.2655587767565314
-1.4580056038429667
-0.3256046141490405
-0.2655587767565314
-1.4580056038429667
-0.3256046141490405
-0.2655587767565314
-1.4580056038429667
-0.3255105223753964
-0.26548119611354076
-1.4580314643042493
-0.3255105223753964
-0.26548119611354076
-1.4580314643042493
-0.3255105223753964
-0.26548119611354076
-1.4580314643042493
-0.3255105223753964
-0.26548119611354076
-1.4580314643042493
-0.32498104289584684
-0.2649079908631993
-1.4576767014733596
-0.32498104289584684
-0.2649079908631993
-1.4576767014733596
-0.32498104289584684
-0.2649079908631993
-1.4576767014733596
-0.32498104289584684
-0.2649079908631993
-1.4576767014733596
-0.3251599853639453
-0.26452906700321366
-1.456918870765032
-0.3251599853639453
-0.26452906700321366
-1.456918870765032
-0.3251599853639453
-0.26452906700321366
-1.456918870765032
-0.3251599853639453
-0.26452906700321366
-1.456918870765032
-0.32494594341559374
-0.26398746914944005
-1.456248033324427
-0.32494594341559374
-0.26398746914944005
-1.456248033324427
-0.32494594341559374
-0.26398746914944005
-1.456248033324427
-0.32494594341559374
-0.26398746914944005
-1.456248033324427
-0.32564515715430997
-0.2633709952952954
-1.4559031072398712
-0.32564515715430997
-0.2633709952952954
-1.4559031072398712
-0.32564515715430997
-0.2633709952952954
-1.4559031072398712
-0.32564515715430997
-0.2633709952952954
-1.4559031072398712
-0.3260755237634654
-0.2626902093405667
-1.455605845169115
-0.3260755237634654
-0.2626902093405667
-1.455605845169115
-0.3260755237634654
-0.2626902093405667
-1.455605845169115
-0.3260755237634654
-0.2626902093405667
-1.455605845169115
-0.3264040262094544
-0.26212923969486307
-1.455478912592154
-0.3264040262094544
-0.26212923969486307
-1.455478912592154
-0.3264040262094544
-0.26212923969486307
-1.455478912592154
-0.3264040262094544
-0.26212923969486307
-1.455478912592154
-0.32631302229323256
-0.2618294893097733
-1.4552801131891613
-0.32631302229323256
-0.2618294893097733
-1.4552801131891613
-0.32631302229323256
-0.2618294893097733
-1.4552801131891613
-0.32631302229323256
-0.2618294893097733
-1.4552801131891613
-0.3261224321240168
-0.26184671962181083
-1.4547740729505523
-0.3261224321240168
-0.26184671962181083
-1.4547740729505523
-0.3261224321240168
-0.26184671962181083
-1.4547740729505523
-0.3261224321240168
-0.26184671962181083
-1.4547740729505523
-0.3264592069904437
-0.26184839319632214
-1.4542842830010398
-0.3264592069904437
-0.26184839319632214
-1.4542842830010398
-0.3264592069904437
-0.26184839319632214
-1.4542842830010398
-0.3264592069904437
-0.26184839319632214
-1.4542842830010398
-0.32640765469515126
-0.2617128315234348
-1.4539613336016237
-0.32640765469515126
-0.2617128315234348
-1.4539613336016237
-0.32640765469515126
-0.2617128315234348
-1.4539613336016237
-0.32640765469515126
-0.2617128315234348
-1.4539613336016237
-0.32640765469515126
-0.2617128315234348
-1.4539613336016237
-0.32640765469515126
-0.2617128315234348
-1.4539613336016237
-0.32640765469515126
-0.2617128315234348
-1.4539613336016237
-0.32640765469515126
-0.2617128315234348
-1.4539613336016237
-0.32632748992675237
-0.26180377992886283
-1.4539569400208876
-0.32632748992675237
-0.26180377992886283
-1.4539569400208876
-0.32632748992675237
-0.26180377992886283
-1.4539569400208876
-0.32632748992675237
-0.26180377992886283
-1.4539569400208876
-0.32658864913141705
-0.2620651386511788
-1.4540541609512034
-0.32658864913141705
-0.2620651386511788
-1.4540541609512034
-0.32658864913141705
-0.2620651386511788
-1.4540541609512034
-0.32658864913141705
-0.2620651386511788
-1.4540541609512034
-0.3272499135030841
-0.26229095763671006
-1.4539203059509733
-0.3272499135030841
-0.26229095763671006
-1.4539203059509733
-0.3272499135030841
-0.26229095763671006
-1.4539203059509733
-0.3272499135030841
-0.26229095763671006
-1.4539203059509733
-0.32695065055561245
-0.26262564075938705
-1.4537283714345555
-0.32695065055561245
-0.26262564075938705
-1.4537283714345555
-0.32695065055561245
-0.26262564075938705
-1.4537283714345555
-0.32695065055561245
-0.26262564075938705
-1.4537283714345555
-0.32610996475477083
-0.2628078458006331
-1.453550647584105
-0.32610996475477083
-0.2628078458006331
-1.453550647584105
-0.32610996475477083
-0.2628078458006331
-1.453550647584105
-0.32610996475477083
-0.2628078458006331
-1.453550647584105
-0.3250306226437406
-0.2630906288715618
-1.4539176370804272
-0.3250306226437406
-0.2630906288715618
-1.4539176370804272
-0.3250306226437406
-0.2630906288715618
-1.4539176370804272
-0.3250306226437406
-0.2630906288715618
-1.4539176370804272
-0.3245609661640726
-0.26360732418271476
-1.454339372265669
-0.3245609661640726
-0.26360732418271476
-1.454339372265669
-0.3245609661640726
-0.26360732418271476
-1.454339372265669
-0.3245609661640726
-0.26360732418271476
-1.454339372265669
-0.3245243494810154
-0.2640308040475043
-1.4548027560610084
-0.3245243494810154
-0.2640308040475043
-1.4548027560610084
-0.3245243494810154
-0.2640308040475043
-1.4548027560610084
-0.3245243494810154
-0.2640308040475043
-1.4548027560610084
-0.32441910211908537
-0.26437274050144405
-1.4551977710162876
-0.32441910211908537
-0.26437274050144405
-1.4551977710162876
-0.32441910211908537
-0.26437274050144405
-1.4551977710162876
-0.32441910211908537
-0.26437274050144405
-1.4551977710162876
-0.32441910211908537
-0.26437274050144405
-1.4551977710162876
-0.32441910211908537
-0.26437274050144405
-1.4551977710162876
-0.32441910211908537
-0.26437274050144405
-1.4551977710162876
-0.32441910211908537
-0.26437274050144405
-1.4551977710162876
-0.3241757449064043
-0.26444791962692166
-1.4556624278565622
-0.3241757449064043
-0.26444791962692166
-1.4556624278565622
-0.3241757449064043
-0.26444791962692166
-1.4556624278565622
-0.3241757449064043
-0.26444791962692166
-1.4556624278565622
-0.3235870651023407
-0.2643276287571707
-1.4559453602920096
-0.3235870651023407
-0.2643276287571707
-1.4559453602920096
-0.3235870651023407
-0.2643276287571707
-1.4559453602920096
-0.3235870651023407
-0.2643276287571707
-1.4559453602920096
-0.3228281081485823
-0.26424529049209017
-1.456330111908895
-0.3228281081485823
-0.26424529049209017
-1.456330111908895
-0.3228281081485823
-0.26424529049209017
